Time[s],Dist[m],Velocity[m/s],1step_diff[m/s]
0.05,0.0015096153846153836,0.0015096153846153836,0.001509615384615387
0.1,0.0030192307692307706,0.0030192307692307706,0.0015096153846153836
0.15000000000000002,0.004528846153846154,0.004528846153846154,0.0015096153846153836
0.2,0.006038461538461538,0.006038461538461538,0.0015096153846153836
0.25,0.007548076923076921,0.007548076923076921,0.0015096153846153836
0.3,0.009057692307692305,0.009057692307692305,0.001509615384615387
0.35,0.010567307692307692,0.010567307692307692,0.0015096153846153836
0.39999999999999997,0.012076923076923075,0.012076923076923075,0.0015096153846153836
0.44999999999999996,0.013586538461538459,0.013586538461538459,0.0015096153846153836
0.49999999999999994,0.015096153846153842,0.015096153846153842,0.001509615384615387
0.5499999999999999,0.01660576923076923,0.01660576923076923,0.00150961538461538
0.6,0.01811538461538461,0.01811538461538461,0.001509615384615387
0.65,0.019624999999999997,0.019624999999999997,0.0015096153846153836
0.7000000000000001,0.02113461538461538,0.02113461538461538,0.0015096153846153836
0.7500000000000001,0.022644230769230764,0.022644230769230764,0.0015096153846153836
0.8000000000000002,0.024153846153846147,0.024153846153846147,0.0015096153846153836
0.8500000000000002,0.02566346153846153,0.02566346153846153,0.001509615384615387
0.9000000000000002,0.027173076923076918,0.027173076923076918,0.0015096153846153836
0.9500000000000003,0.0286826923076923,0.0286826923076923,0.0015096153846153836
1.0000000000000002,0.030192307692307685,0.030192307692307685,0.0
1.0500000000000003,0.030192307692307685,0.030192307692307685,0.0
1.1000000000000003,0.030192307692307685,0.030192307692307685,0.0
1.1500000000000004,0.030192307692307685,0.030192307692307685,0.0
1.2000000000000004,0.030192307692307685,0.030192307692307685,0.0
1.2500000000000004,0.030192307692307685,0.030192307692307685,0.0
1.3000000000000005,0.030192307692307685,0.030192307692307685,0.0
1.3500000000000005,0.030192307692307685,0.030192307692307685,0.0
1.4000000000000006,0.030192307692307685,0.030192307692307685,0.0
1.4500000000000006,0.030192307692307685,0.030192307692307685,0.0
1.5000000000000007,0.030192307692307685,0.030192307692307685,0.0
1.5500000000000007,0.030192307692307685,0.030192307692307685,0.0
1.6000000000000008,0.030192307692307685,0.030192307692307685,0.0
1.6500000000000008,0.030192307692307685,0.030192307692307685,0.0
1.7000000000000008,0.030192307692307685,0.030192307692307685,0.0
1.7500000000000009,0.030192307692307685,0.030192307692307685,0.0
1.800000000000001,0.030192307692307685,0.030192307692307685,0.0
1.850000000000001,0.030192307692307685,0.030192307692307685,0.0
1.900000000000001,0.030192307692307685,0.030192307692307685,0.0
1.950000000000001,0.030192307692307685,0.030192307692307685,0.0
2.000000000000001,0.030192307692307685,0.030192307692307685,0.0025361538461538477
2.0500000000000007,0.03272846153846153,0.03272846153846153,0.0025361538461538477
2.1000000000000005,0.03526461538461538,0.03526461538461538,0.0025361538461538477
2.1500000000000004,0.03780076923076923,0.03780076923076923,0.0025361538461538477
2.2,0.040336923076923076,0.040336923076923076,0.0025361538461538477
2.25,0.042873076923076923,0.042873076923076923,0.0025361538461538477
2.3,0.04540923076923077,0.04540923076923077,0.0025361538461538477
2.3499999999999996,0.04794538461538462,0.04794538461538462,0.0025361538461538477
2.3999999999999995,0.05048153846153847,0.05048153846153847,0.0025361538461538408
2.4499999999999993,0.05301769230769231,0.05301769230769231,0.0025361538461538477
2.499999999999999,0.055553846153846155,0.055553846153846155,0.0025361538461538477
2.549999999999999,0.05809,0.05809,0.0025361538461538477
2.5999999999999988,0.06062615384615385,0.06062615384615385,0.0025361538461538477
2.6499999999999986,0.0631623076923077,0.0631623076923077,0.0025361538461538408
2.6999999999999984,0.06569846153846154,0.06569846153846154,0.0025361538461538546
2.7499999999999982,0.0682346153846154,0.0682346153846154,0.0025361538461538408
2.799999999999998,0.07077076923076923,0.07077076923076923,0.0025361538461538546
2.849999999999998,0.07330692307692309,0.07330692307692309,0.0025361538461538408
2.8999999999999977,0.07584307692307693,0.07584307692307693,0.0025361538461538546
2.9499999999999975,0.07837923076923078,0.07837923076923078,0.0025361538461538408
2.9999999999999973,0.08091538461538463,0.08091538461538463,0.0049460489510489425
3.049999999999997,0.08586143356643357,0.08586143356643357,0.004946048951048956
3.099999999999997,0.09080748251748252,0.09080748251748252,0.0049460489510489425
3.149999999999997,0.09575353146853147,0.09575353146853147,0.004946048951048956
3.1999999999999966,0.10069958041958042,0.10069958041958042,0.004946048951048956
3.2499999999999964,0.10564562937062938,0.10564562937062938,0.0049460489510489425
3.2999999999999963,0.11059167832167832,0.11059167832167832,0.004946048951048956
3.349999999999996,0.11553772727272728,0.11553772727272728,0.0049460489510489425
3.399999999999996,0.12048377622377622,0.12048377622377622,0.004946048951048956
3.4499999999999957,0.12542982517482518,0.12542982517482518,0.0049460489510489425
3.4999999999999956,0.13037587412587412,0.13037587412587412,0.00494604895104897
3.5499999999999954,0.1353219230769231,0.1353219230769231,0.0049460489510489425
3.599999999999995,0.14026797202797203,0.14026797202797203,0.0049460489510489425
3.649999999999995,0.14521402097902097,0.14521402097902097,0.0049460489510489425
3.699999999999995,0.15016006993006992,0.15016006993006992,0.00494604895104897
3.7499999999999947,0.1551061188811189,0.1551061188811189,0.0049460489510489425
3.7999999999999945,0.16005216783216783,0.16005216783216783,0.0049460489510489425
3.8499999999999943,0.16499821678321677,0.16499821678321677,0.0049460489510489425
3.899999999999994,0.16994426573426571,0.16994426573426571,0.00494604895104897
3.949999999999994,0.17489031468531469,0.17489031468531469,0.0049460489510489425
3.999999999999994,0.17983636363636363,0.17983636363636363,0.0008444696969696908
4.049999999999994,0.17899189393939394,0.17899189393939394,0.0008444696969696908
4.099999999999993,0.17814742424242425,0.17814742424242425,0.0008444696969697185
4.149999999999993,0.17730295454545453,0.17730295454545453,0.0008444696969696908
4.199999999999993,0.17645848484848484,0.17645848484848484,0.0008444696969696908
4.249999999999993,0.17561401515151515,0.17561401515151515,0.0008444696969697185
4.299999999999993,0.17476954545454543,0.17476954545454543,0.0008444696969696908
4.3499999999999925,0.17392507575757574,0.17392507575757574,0.0008444696969696908
4.399999999999992,0.17308060606060605,0.17308060606060605,0.0008444696969696908
4.449999999999992,0.17223613636363636,0.17223613636363636,0.0008444696969696908
4.499999999999992,0.17139166666666666,0.17139166666666666,0.0008444696969697185
4.549999999999992,0.17054719696969695,0.17054719696969695,0.0008444696969696908
4.599999999999992,0.16970272727272726,0.16970272727272726,0.0008444696969696908
4.6499999999999915,0.16885825757575756,0.16885825757575756,0.0008444696969697185
4.699999999999991,0.16801378787878785,0.16801378787878785,0.0008444696969696908
4.749999999999991,0.16716931818181816,0.16716931818181816,0.0008444696969696908
4.799999999999991,0.16632484848484846,0.16632484848484846,0.0008444696969696908
4.849999999999991,0.16548037878787877,0.16548037878787877,0.0008444696969696908
4.899999999999991,0.16463590909090908,0.16463590909090908,0.0008444696969697185
4.94999999999999,0.16379143939393936,0.16379143939393936,0.0008444696969696908
4.99999999999999,0.16294696969696967,0.16294696969696967,0.005328484848484832
5.04999999999999,0.1682754545454545,0.1682754545454545,0.00532848484848486
5.09999999999999,0.17360393939393937,0.17360393939393937,0.00532848484848486
5.14999999999999,0.17893242424242423,0.17893242424242423,0.00532848484848486
5.1999999999999895,0.1842609090909091,0.1842609090909091,0.005328484848484832
5.249999999999989,0.18958939393939392,0.18958939393939392,0.00532848484848486
5.299999999999989,0.19491787878787878,0.19491787878787878,0.005328484848484832
5.349999999999989,0.2002463636363636,0.2002463636363636,0.00532848484848486
5.399999999999989,0.20557484848484847,0.20557484848484847,0.00532848484848486
5.449999999999989,0.21090333333333333,0.21090333333333333,0.00532848484848486
5.4999999999999885,0.2162318181818182,0.2162318181818182,0.005328484848484832
5.549999999999988,0.22156030303030302,0.22156030303030302,0.00532848484848486
5.599999999999988,0.22688878787878788,0.22688878787878788,0.005328484848484832
5.649999999999988,0.23221727272727272,0.23221727272727272,0.00532848484848486
5.699999999999988,0.23754575757575758,0.23754575757575758,0.00532848484848486
5.749999999999988,0.24287424242424244,0.24287424242424244,0.005328484848484832
5.799999999999987,0.24820272727272727,0.24820272727272727,0.005328484848484832
5.849999999999987,0.2535312121212121,0.2535312121212121,0.00532848484848486
5.899999999999987,0.25885969696969696,0.25885969696969696,0.00532848484848486
5.949999999999987,0.2641881818181818,0.2641881818181818,0.00532848484848486
5.999999999999987,0.2695166666666667,0.2695166666666667,0.0006214583333333246
6.0499999999999865,0.26889520833333336,0.26889520833333336,0.0006214583333333246
6.099999999999986,0.26827375000000003,0.26827375000000003,0.0006214583333333801
6.149999999999986,0.26765229166666665,0.26765229166666665,0.0006214583333333246
6.199999999999986,0.26703083333333333,0.26703083333333333,0.0006214583333333246
6.249999999999986,0.266409375,0.266409375,0.0006214583333333246
6.299999999999986,0.2657879166666667,0.2657879166666667,0.0006214583333333246
6.349999999999985,0.26516645833333335,0.26516645833333335,0.0006214583333333801
6.399999999999985,0.264545,0.264545,0.0006214583333333246
6.449999999999985,0.26392354166666665,0.26392354166666665,0.0006214583333333246
6.499999999999985,0.2633020833333333,0.2633020833333333,0.0006214583333333246
6.549999999999985,0.262680625,0.262680625,0.0006214583333333246
6.5999999999999845,0.2620591666666667,0.2620591666666667,0.0006214583333333801
6.649999999999984,0.2614377083333333,0.2614377083333333,0.0006214583333333246
6.699999999999984,0.26081624999999997,0.26081624999999997,0.0006214583333333246
6.749999999999984,0.26019479166666665,0.26019479166666665,0.0006214583333333246
6.799999999999984,0.2595733333333333,0.2595733333333333,0.0006214583333333246
6.849999999999984,0.258951875,0.258951875,0.0006214583333333801
6.8999999999999835,0.2583304166666666,0.2583304166666666,0.0006214583333333246
6.949999999999983,0.2577089583333333,0.2577089583333333,0.0006214583333333246
6.999999999999983,0.25708749999999997,0.25708749999999997,0.0011494642857142745
7.049999999999983,0.2559380357142857,0.2559380357142857,0.0011494642857142745
7.099999999999983,0.2547885714285714,0.2547885714285714,0.00114946428571433
7.149999999999983,0.2536391071428571,0.2536391071428571,0.0011494642857142745
7.199999999999982,0.2524896428571428,0.2524896428571428,0.0011494642857142745
7.249999999999982,0.25134017857142854,0.25134017857142854,0.0011494642857142745
7.299999999999982,0.25019071428571427,0.25019071428571427,0.0011494642857142745
7.349999999999982,0.24904125,0.24904125,0.0011494642857142745
7.399999999999982,0.24789178571428572,0.24789178571428572,0.0011494642857143023
7.4499999999999815,0.24674232142857142,0.24674232142857142,0.0011494642857142745
7.499999999999981,0.24559285714285714,0.24559285714285714,0.0011494642857142745
7.549999999999981,0.24444339285714287,0.24444339285714287,0.0011494642857143023
7.599999999999981,0.24329392857142856,0.24329392857142856,0.0011494642857142745
7.649999999999981,0.2421444642857143,0.2421444642857143,0.0011494642857142745
7.699999999999981,0.24099500000000001,0.24099500000000001,0.0011494642857142745
7.7499999999999805,0.23984553571428574,0.23984553571428574,0.0011494642857143023
7.79999999999998,0.23869607142857144,0.23869607142857144,0.0011494642857142745
7.84999999999998,0.23754660714285716,0.23754660714285716,0.0011494642857142745
7.89999999999998,0.2363971428571429,0.2363971428571429,0.0011494642857143023
7.94999999999998,0.2352476785714286,0.2352476785714286,0.0011494642857142745
7.99999999999998,0.2340982142857143,0.2340982142857143,0.0014158035714285644
8.04999999999998,0.23551401785714288,0.23551401785714288,0.0014158035714285921
8.09999999999998,0.23692982142857147,0.23692982142857147,0.0014158035714285644
8.14999999999998,0.23834562500000003,0.23834562500000003,0.0014158035714285644
8.199999999999982,0.2397614285714286,0.2397614285714286,0.0014158035714285921
8.249999999999982,0.2411772321428572,0.2411772321428572,0.0014158035714285644
8.299999999999983,0.24259303571428575,0.24259303571428575,0.0014158035714285644
8.349999999999984,0.24400883928571432,0.24400883928571432,0.0014158035714285644
8.399999999999984,0.24542464285714288,0.24542464285714288,0.0014158035714285921
8.449999999999985,0.24684044642857148,0.24684044642857148,0.0014158035714285644
8.499999999999986,0.24825625000000004,0.24825625000000004,0.0014158035714285644
8.549999999999986,0.2496720535714286,0.2496720535714286,0.0014158035714285921
8.599999999999987,0.2510878571428572,0.2510878571428572,0.0014158035714285644
8.649999999999988,0.25250366071428576,0.25250366071428576,0.0014158035714285644
8.699999999999989,0.2539194642857143,0.2539194642857143,0.0014158035714285644
8.74999999999999,0.2553352678571429,0.2553352678571429,0.0014158035714285644
8.79999999999999,0.25675107142857145,0.25675107142857145,0.00141580357142862
8.84999999999999,0.2581668750000001,0.2581668750000001,0.0014158035714285644
8.899999999999991,0.25958267857142864,0.25958267857142864,0.0014158035714285644
8.949999999999992,0.2609984821428572,0.2609984821428572,0.0014158035714285644
8.999999999999993,0.26241428571428577,0.26241428571428577,0.00048595238095239246
9.049999999999994,0.26290023809523816,0.26290023809523816,0.00048595238095233695
9.099999999999994,0.2633861904761905,0.2633861904761905,0.00048595238095239246
9.149999999999995,0.2638721428571429,0.2638721428571429,0.00048595238095239246
9.199999999999996,0.2643580952380953,0.2643580952380953,0.00048595238095239246
9.249999999999996,0.2648440476190477,0.2648440476190477,0.00048595238095239246
9.299999999999997,0.26533000000000007,0.26533000000000007,0.00048595238095233695
9.349999999999998,0.2658159523809524,0.2658159523809524,0.00048595238095239246
9.399999999999999,0.2663019047619048,0.2663019047619048,0.00048595238095239246
9.45,0.2667878571428572,0.2667878571428572,0.00048595238095233695
9.5,0.2672738095238095,0.2672738095238095,0.00048595238095239246
9.55,0.2677597619047619,0.2677597619047619,0.00048595238095239246
9.600000000000001,0.2682457142857143,0.2682457142857143,0.00048595238095239246
9.650000000000002,0.2687316666666667,0.2687316666666667,0.00048595238095239246
9.700000000000003,0.2692176190476191,0.2692176190476191,0.00048595238095233695
9.750000000000004,0.26970357142857143,0.26970357142857143,0.00048595238095239246
9.800000000000004,0.2701895238095238,0.2701895238095238,0.00048595238095239246
9.850000000000005,0.2706754761904762,0.2706754761904762,0.00048595238095233695
9.900000000000006,0.27116142857142855,0.27116142857142855,0.00048595238095239246
9.950000000000006,0.27164738095238095,0.27164738095238095,0.00048595238095239246
10.000000000000007,0.27213333333333334,0.27213333333333334,0.00013083333333330227
10.050000000000008,0.27226416666666664,0.27226416666666664,0.00013083333333335778
10.100000000000009,0.272395,0.272395,0.00013083333333335778
10.15000000000001,0.27252583333333336,0.27252583333333336,0.00013083333333330227
10.20000000000001,0.27265666666666666,0.27265666666666666,0.00013083333333330227
10.25000000000001,0.27278749999999996,0.27278749999999996,0.00013083333333335778
10.300000000000011,0.2729183333333333,0.2729183333333333,0.00013083333333335778
10.350000000000012,0.2730491666666667,0.2730491666666667,0.00013083333333330227
10.400000000000013,0.27318,0.27318,0.00013083333333330227
10.450000000000014,0.2733108333333333,0.2733108333333333,0.00013083333333335778
10.500000000000014,0.27344166666666664,0.27344166666666664,0.00013083333333335778
10.550000000000015,0.2735725,0.2735725,0.00013083333333330227
10.600000000000016,0.2737033333333333,0.2737033333333333,0.00013083333333330227
10.650000000000016,0.2738341666666666,0.2738341666666666,0.00013083333333335778
10.700000000000017,0.27396499999999996,0.27396499999999996,0.00013083333333335778
10.750000000000018,0.2740958333333333,0.2740958333333333,0.00013083333333330227
10.800000000000018,0.2742266666666666,0.2742266666666666,0.00013083333333330227
10.85000000000002,0.2743574999999999,0.2743574999999999,0.00013083333333335778
10.90000000000002,0.2744883333333333,0.2744883333333333,0.00013083333333335778
10.95000000000002,0.27461916666666664,0.27461916666666664,0.00013083333333330227
11.000000000000021,0.27474999999999994,0.27474999999999994,0.00026166666666666005
11.050000000000022,0.2744883333333333,0.2744883333333333,0.00026166666666666005
11.100000000000023,0.2742266666666666,0.2742266666666666,0.00026166666666666005
11.150000000000023,0.27396499999999996,0.27396499999999996,0.00026166666666666005
11.200000000000024,0.2737033333333333,0.2737033333333333,0.00026166666666666005
11.250000000000025,0.27344166666666664,0.27344166666666664,0.00026166666666666005
11.300000000000026,0.27318,0.27318,0.00026166666666666005
11.350000000000026,0.2729183333333333,0.2729183333333333,0.00026166666666666005
11.400000000000027,0.27265666666666666,0.27265666666666666,0.00026166666666666005
11.450000000000028,0.272395,0.272395,0.00026166666666666005
11.500000000000028,0.27213333333333334,0.27213333333333334,0.00026166666666671556
11.55000000000003,0.2718716666666666,0.2718716666666666,0.00026166666666666005
11.60000000000003,0.27160999999999996,0.27160999999999996,0.00026166666666666005
11.65000000000003,0.2713483333333333,0.2713483333333333,0.00026166666666666005
11.700000000000031,0.27108666666666664,0.27108666666666664,0.00026166666666666005
11.750000000000032,0.270825,0.270825,0.00026166666666666005
11.800000000000033,0.2705633333333333,0.2705633333333333,0.00026166666666666005
11.850000000000033,0.27030166666666666,0.27030166666666666,0.00026166666666666005
11.900000000000034,0.27004,0.27004,0.00026166666666666005
11.950000000000035,0.26977833333333334,0.26977833333333334,0.00026166666666666005
12.000000000000036,0.2695166666666667,0.2695166666666667,0.0006541666666666779
12.050000000000036,0.27017083333333336,0.27017083333333336,0.0006541666666666224
12.100000000000037,0.270825,0.270825,0.0006541666666666779
12.150000000000038,0.27147916666666666,0.27147916666666666,0.0006541666666666779
12.200000000000038,0.27213333333333334,0.27213333333333334,0.0006541666666666779
12.250000000000039,0.2727875,0.2727875,0.0006541666666666779
12.30000000000004,0.2734416666666667,0.2734416666666667,0.0006541666666666224
12.35000000000004,0.2740958333333333,0.2740958333333333,0.0006541666666666779
12.400000000000041,0.27475,0.27475,0.0006541666666666779
12.450000000000042,0.27540416666666667,0.27540416666666667,0.0006541666666666224
12.500000000000043,0.2760583333333333,0.2760583333333333,0.0006541666666666779
12.550000000000043,0.2767125,0.2767125,0.0006541666666666779
12.600000000000044,0.27736666666666665,0.27736666666666665,0.0006541666666666779
12.650000000000045,0.27802083333333333,0.27802083333333333,0.0006541666666666779
12.700000000000045,0.278675,0.278675,0.0006541666666666224
12.750000000000046,0.27932916666666663,0.27932916666666663,0.0006541666666666779
12.800000000000047,0.2799833333333333,0.2799833333333333,0.0006541666666666779
12.850000000000048,0.2806375,0.2806375,0.0006541666666666224
