Time[s],Dist[m],Velocity[m/s],1step_diff[m/s]
0.05,0.0021805555555555536,0.0021805555555555536,0.0021805555555555536
0.1,0.004361111111111107,0.004361111111111107,0.0021805555555555536
0.15000000000000002,0.006541666666666661,0.006541666666666661,0.0021805555555555536
0.2,0.008722222222222215,0.008722222222222215,0.0021805555555555536
0.25,0.010902777777777768,0.010902777777777768,0.0021805555555555536
0.3,0.013083333333333322,0.013083333333333322,0.002180555555555557
0.35,0.015263888888888879,0.015263888888888879,0.0021805555555555536
0.39999999999999997,0.017444444444444433,0.017444444444444433,0.0021805555555555536
0.44999999999999996,0.019624999999999986,0.019624999999999986,0.002180555555555557
0.49999999999999994,0.021805555555555543,0.021805555555555543,0.0021805555555555536
0.5499999999999999,0.023986111111111097,0.023986111111111097,0.0021805555555555536
0.6,0.02616666666666665,0.02616666666666665,0.0021805555555555536
0.65,0.028347222222222204,0.028347222222222204,0.0021805555555555536
0.7000000000000001,0.030527777777777758,0.030527777777777758,0.0021805555555555536
0.7500000000000001,0.03270833333333331,0.03270833333333331,0.0021805555555555606
0.8000000000000002,0.03488888888888887,0.03488888888888887,0.0021805555555555536
0.8500000000000002,0.037069444444444426,0.037069444444444426,0.0021805555555555536
0.9000000000000002,0.03924999999999998,0.03924999999999998,0.0021805555555555536
0.9500000000000003,0.04143055555555553,0.04143055555555553,0.0021805555555555536
1.0000000000000002,0.04361111111111109,0.04361111111111109,0.0008722222222222187
1.0500000000000003,0.044483333333333305,0.044483333333333305,0.0008722222222222256
1.1000000000000003,0.04535555555555553,0.04535555555555553,0.0008722222222222256
1.1500000000000004,0.04622777777777776,0.04622777777777776,0.0008722222222222187
1.2000000000000004,0.047099999999999975,0.047099999999999975,0.0008722222222222187
1.2500000000000004,0.047972222222222194,0.047972222222222194,0.0008722222222222256
1.3000000000000005,0.04884444444444442,0.04884444444444442,0.0008722222222222256
1.3500000000000005,0.049716666666666645,0.049716666666666645,0.0008722222222222187
1.4000000000000006,0.050588888888888864,0.050588888888888864,0.0008722222222222187
1.4500000000000006,0.05146111111111108,0.05146111111111108,0.0008722222222222256
1.5000000000000007,0.05233333333333331,0.05233333333333331,0.0008722222222222256
1.5500000000000007,0.053205555555555534,0.053205555555555534,0.0008722222222222187
1.6000000000000008,0.05407777777777775,0.05407777777777775,0.0008722222222222187
1.6500000000000008,0.05494999999999997,0.05494999999999997,0.0008722222222222256
1.7000000000000008,0.0558222222222222,0.0558222222222222,0.0008722222222222256
1.7500000000000009,0.05669444444444442,0.05669444444444442,0.0008722222222222187
1.800000000000001,0.05756666666666664,0.05756666666666664,0.0008722222222222187
1.850000000000001,0.05843888888888886,0.05843888888888886,0.0008722222222222256
1.900000000000001,0.059311111111111085,0.059311111111111085,0.0008722222222222256
1.950000000000001,0.06018333333333331,0.06018333333333331,0.0008722222222222187
2.000000000000001,0.06105555555555553,0.06105555555555553,0.0044701388888888915
2.0500000000000007,0.06552569444444442,0.06552569444444442,0.004470138888888878
2.1000000000000005,0.0699958333333333,0.0699958333333333,0.0044701388888888915
2.1500000000000004,0.07446597222222219,0.07446597222222219,0.0044701388888888915
2.2,0.07893611111111108,0.07893611111111108,0.0044701388888888915
2.25,0.08340624999999997,0.08340624999999997,0.0044701388888888915
2.3,0.08787638888888887,0.08787638888888887,0.004470138888888878
2.3499999999999996,0.09234652777777774,0.09234652777777774,0.0044701388888888915
2.3999999999999995,0.09681666666666663,0.09681666666666663,0.0044701388888888915
2.4499999999999993,0.10128680555555553,0.10128680555555553,0.0044701388888888915
2.499999999999999,0.10575694444444442,0.10575694444444442,0.0044701388888888915
2.549999999999999,0.11022708333333331,0.11022708333333331,0.0044701388888888915
2.5999999999999988,0.1146972222222222,0.1146972222222222,0.0044701388888888915
2.6499999999999986,0.11916736111111109,0.11916736111111109,0.004470138888888878
2.6999999999999984,0.12363749999999997,0.12363749999999997,0.004470138888888905
2.7499999999999982,0.12810763888888888,0.12810763888888888,0.004470138888888864
2.799999999999998,0.13257777777777774,0.13257777777777774,0.0044701388888888915
2.849999999999998,0.13704791666666663,0.13704791666666663,0.0044701388888888915
2.8999999999999977,0.14151805555555552,0.14151805555555552,0.0044701388888888915
2.9499999999999975,0.1459881944444444,0.1459881944444444,0.0044701388888888915
2.9999999999999973,0.1504583333333333,0.1504583333333333,0.003270833333333334
3.049999999999997,0.15372916666666664,0.15372916666666664,0.003270833333333334
3.099999999999997,0.15699999999999997,0.15699999999999997,0.003270833333333334
3.149999999999997,0.1602708333333333,0.1602708333333333,0.003270833333333334
3.1999999999999966,0.16354166666666664,0.16354166666666664,0.003270833333333334
3.2499999999999964,0.16681249999999997,0.16681249999999997,0.003270833333333334
3.2999999999999963,0.1700833333333333,0.1700833333333333,0.003270833333333334
3.349999999999996,0.17335416666666664,0.17335416666666664,0.003270833333333334
3.399999999999996,0.17662499999999998,0.17662499999999998,0.003270833333333334
3.4499999999999957,0.1798958333333333,0.1798958333333333,0.003270833333333334
3.4999999999999956,0.18316666666666664,0.18316666666666664,0.0032708333333333617
3.5499999999999954,0.1864375,0.1864375,0.003270833333333334
3.599999999999995,0.18970833333333334,0.18970833333333334,0.003270833333333334
3.649999999999995,0.19297916666666667,0.19297916666666667,0.003270833333333334
3.699999999999995,0.19625,0.19625,0.003270833333333334
3.7499999999999947,0.19952083333333334,0.19952083333333334,0.003270833333333334
3.7999999999999945,0.20279166666666668,0.20279166666666668,0.003270833333333334
3.8499999999999943,0.2060625,0.2060625,0.003270833333333334
3.899999999999994,0.20933333333333334,0.20933333333333334,0.003270833333333334
3.949999999999994,0.21260416666666668,0.21260416666666668,0.003270833333333334
3.999999999999994,0.215875,0.215875,0.0009812500000000168
4.049999999999994,0.21489375,0.21489375,0.000981249999999989
4.099999999999993,0.2139125,0.2139125,0.000981249999999989
4.149999999999993,0.21293125000000002,0.21293125000000002,0.0009812500000000168
4.199999999999993,0.21195,0.21195,0.0009812500000000168
4.249999999999993,0.21096874999999998,0.21096874999999998,0.000981249999999989
4.299999999999993,0.2099875,0.2099875,0.000981249999999989
4.3499999999999925,0.20900625,0.20900625,0.0009812500000000168
4.399999999999992,0.208025,0.208025,0.0009812500000000168
4.449999999999992,0.20704374999999997,0.20704374999999997,0.000981249999999989
4.499999999999992,0.20606249999999998,0.20606249999999998,0.000981249999999989
4.549999999999992,0.20508125,0.20508125,0.0009812500000000168
4.599999999999992,0.20409999999999998,0.20409999999999998,0.0009812500000000168
4.6499999999999915,0.20311874999999996,0.20311874999999996,0.000981249999999989
4.699999999999991,0.20213749999999997,0.20213749999999997,0.000981249999999989
4.749999999999991,0.20115624999999998,0.20115624999999998,0.0009812500000000168
4.799999999999991,0.20017499999999996,0.20017499999999996,0.0009812500000000168
4.849999999999991,0.19919374999999995,0.19919374999999995,0.000981249999999989
4.899999999999991,0.19821249999999996,0.19821249999999996,0.000981249999999989
4.94999999999999,0.19723124999999997,0.19723124999999997,0.0009812500000000168
4.99999999999999,0.19624999999999995,0.19624999999999995,0.0007850000000000079
5.04999999999999,0.19703499999999996,0.19703499999999996,0.0007850000000000079
5.09999999999999,0.19781999999999997,0.19781999999999997,0.0007850000000000079
5.14999999999999,0.19860499999999998,0.19860499999999998,0.0007849999999999802
5.1999999999999895,0.19938999999999996,0.19938999999999996,0.0007850000000000079
5.249999999999989,0.20017499999999996,0.20017499999999996,0.0007850000000000079
5.299999999999989,0.20095999999999997,0.20095999999999997,0.0007850000000000079
5.349999999999989,0.20174499999999998,0.20174499999999998,0.0007850000000000079
5.399999999999989,0.20253,0.20253,0.0007850000000000079
5.449999999999989,0.203315,0.203315,0.0007850000000000079
5.4999999999999885,0.2041,0.2041,0.0007849999999999802
5.549999999999988,0.20488499999999998,0.20488499999999998,0.0007850000000000079
5.599999999999988,0.20567,0.20567,0.0007850000000000079
5.649999999999988,0.206455,0.206455,0.0007850000000000079
5.699999999999988,0.20724,0.20724,0.0007850000000000079
5.749999999999988,0.20802500000000002,0.20802500000000002,0.0007850000000000079
5.799999999999987,0.20881000000000002,0.20881000000000002,0.0007849999999999802
5.849999999999987,0.209595,0.209595,0.0007850000000000079
5.899999999999987,0.21038,0.21038,0.0007850000000000079
5.949999999999987,0.21116500000000002,0.21116500000000002,0.0007850000000000079
5.999999999999987,0.21195000000000003,0.21195000000000003,0.003663333333333324
6.0499999999999865,0.21561333333333335,0.21561333333333335,0.003663333333333324
6.099999999999986,0.21927666666666668,0.21927666666666668,0.0036633333333333518
6.149999999999986,0.22294000000000003,0.22294000000000003,0.003663333333333324
6.199999999999986,0.22660333333333335,0.22660333333333335,0.003663333333333324
6.249999999999986,0.23026666666666668,0.23026666666666668,0.003663333333333324
6.299999999999986,0.23393,0.23393,0.003663333333333324
6.349999999999985,0.23759333333333332,0.23759333333333332,0.0036633333333333518
6.399999999999985,0.24125666666666667,0.24125666666666667,0.003663333333333324
6.449999999999985,0.24492,0.24492,0.003663333333333324
6.499999999999985,0.24858333333333332,0.24858333333333332,0.0036633333333333518
6.549999999999985,0.2522466666666667,0.2522466666666667,0.0036633333333332962
6.5999999999999845,0.25590999999999997,0.25590999999999997,0.0036633333333333518
6.649999999999984,0.2595733333333333,0.2595733333333333,0.0036633333333332962
6.699999999999984,0.2632366666666666,0.2632366666666666,0.0036633333333333518
6.749999999999984,0.26689999999999997,0.26689999999999997,0.0036633333333333518
6.799999999999984,0.2705633333333333,0.2705633333333333,0.0036633333333332962
6.849999999999984,0.2742266666666666,0.2742266666666666,0.0036633333333333518
6.8999999999999835,0.27788999999999997,0.27788999999999997,0.0036633333333332962
6.949999999999983,0.28155333333333327,0.28155333333333327,0.0036633333333333518
6.999999999999983,0.2852166666666666,0.2852166666666666,0.0005233333333333201
7.049999999999983,0.2846933333333333,0.2846933333333333,0.0005233333333333756
7.099999999999983,0.2841699999999999,0.2841699999999999,0.0005233333333333201
7.149999999999983,0.2836466666666666,0.2836466666666666,0.0005233333333333201
7.199999999999982,0.2831233333333333,0.2831233333333333,0.0005233333333333201
7.249999999999982,0.28259999999999996,0.28259999999999996,0.0005233333333333201
7.299999999999982,0.28207666666666664,0.28207666666666664,0.0005233333333333756
7.349999999999982,0.28155333333333327,0.28155333333333327,0.0005233333333333201
7.399999999999982,0.28102999999999995,0.28102999999999995,0.0005233333333333201
7.4499999999999815,0.2805066666666666,0.2805066666666666,0.0005233333333333756
7.499999999999981,0.27998333333333325,0.27998333333333325,0.0005233333333333201
7.549999999999981,0.27945999999999993,0.27945999999999993,0.0005233333333333201
7.599999999999981,0.2789366666666666,0.2789366666666666,0.0005233333333333201
7.649999999999981,0.2784133333333333,0.2784133333333333,0.0005233333333333201
7.699999999999981,0.27788999999999997,0.27788999999999997,0.0005233333333333756
7.7499999999999805,0.2773666666666666,0.2773666666666666,0.0005233333333333201
7.79999999999998,0.2768433333333333,0.2768433333333333,0.0005233333333333201
7.84999999999998,0.27631999999999995,0.27631999999999995,0.0005233333333333756
7.89999999999998,0.2757966666666666,0.2757966666666666,0.0005233333333333201
7.94999999999998,0.27527333333333326,0.27527333333333326,0.0005233333333333201
7.99999999999998,0.27474999999999994,0.27474999999999994,0.0006541666666666779
8.04999999999998,0.27409583333333326,0.27409583333333326,0.0006541666666666779
8.09999999999998,0.2734416666666666,0.2734416666666666,0.0006541666666666224
8.14999999999998,0.27278749999999996,0.27278749999999996,0.0006541666666666779
8.199999999999982,0.2721333333333333,0.2721333333333333,0.0006541666666666779
8.249999999999982,0.2714791666666666,0.2714791666666666,0.0006541666666666224
8.299999999999983,0.270825,0.270825,0.0006541666666666779
8.349999999999984,0.2701708333333333,0.2701708333333333,0.0006541666666666779
8.399999999999984,0.2695166666666666,0.2695166666666666,0.0006541666666666779
8.449999999999985,0.26886249999999995,0.26886249999999995,0.0006541666666666779
8.499999999999986,0.26820833333333327,0.26820833333333327,0.0006541666666666224
8.549999999999986,0.26755416666666665,0.26755416666666665,0.0006541666666666779
8.599999999999987,0.26689999999999997,0.26689999999999997,0.0006541666666666779
8.649999999999988,0.2662458333333333,0.2662458333333333,0.0006541666666666224
8.699999999999989,0.26559166666666667,0.26559166666666667,0.0006541666666666779
8.74999999999999,0.2649375,0.2649375,0.0006541666666666779
8.79999999999999,0.2642833333333333,0.2642833333333333,0.0006541666666666779
8.84999999999999,0.26362916666666664,0.26362916666666664,0.0006541666666666779
8.899999999999991,0.26297499999999996,0.26297499999999996,0.0006541666666666224
8.949999999999992,0.26232083333333334,0.26232083333333334,0.0006541666666666779
8.999999999999993,0.26166666666666666,0.26166666666666666,0.002354999999999996
9.049999999999994,0.26402166666666665,0.26402166666666665,0.002354999999999996
9.099999999999994,0.26637666666666665,0.26637666666666665,0.002354999999999996
9.149999999999995,0.26873166666666665,0.26873166666666665,0.002354999999999996
9.199999999999996,0.27108666666666664,0.27108666666666664,0.002354999999999996
9.249999999999996,0.27344166666666664,0.27344166666666664,0.002354999999999996
9.299999999999997,0.27579666666666663,0.27579666666666663,0.002354999999999996
9.349999999999998,0.27815166666666663,0.27815166666666663,0.002354999999999996
9.399999999999999,0.2805066666666666,0.2805066666666666,0.0023550000000000515
9.45,0.2828616666666667,0.2828616666666667,0.002354999999999996
9.5,0.2852166666666667,0.2852166666666667,0.002354999999999996
9.55,0.28757166666666667,0.28757166666666667,0.002354999999999996
9.600000000000001,0.28992666666666667,0.28992666666666667,0.002354999999999996
9.650000000000002,0.29228166666666666,0.29228166666666666,0.002354999999999996
9.700000000000003,0.29463666666666666,0.29463666666666666,0.002354999999999996
9.750000000000004,0.29699166666666665,0.29699166666666665,0.002354999999999996
9.800000000000004,0.29934666666666665,0.29934666666666665,0.002354999999999996
9.850000000000005,0.30170166666666665,0.30170166666666665,0.002354999999999996
9.900000000000006,0.30405666666666664,0.30405666666666664,0.002354999999999996
9.950000000000006,0.30641166666666664,0.30641166666666664,0.002354999999999996
10.000000000000007,0.30876666666666663,0.30876666666666663,0.0024858333333333538
10.050000000000008,0.3112525,0.3112525,0.0024858333333332983
10.100000000000009,0.3137383333333333,0.3137383333333333,0.0024858333333333538
10.15000000000001,0.31622416666666664,0.31622416666666664,0.0024858333333333538
10.20000000000001,0.31871,0.31871,0.0024858333333332983
10.25000000000001,0.3211958333333333,0.3211958333333333,0.0024858333333333538
10.300000000000011,0.32368166666666665,0.32368166666666665,0.0024858333333333538
10.350000000000012,0.3261675,0.3261675,0.0024858333333332983
10.400000000000013,0.3286533333333333,0.3286533333333333,0.0024858333333333538
10.450000000000014,0.33113916666666665,0.33113916666666665,0.0024858333333332983
10.500000000000014,0.33362499999999995,0.33362499999999995,0.0024858333333333538
10.550000000000015,0.3361108333333333,0.3361108333333333,0.0024858333333333538
10.600000000000016,0.33859666666666666,0.33859666666666666,0.0024858333333332983
10.650000000000016,0.34108249999999996,0.34108249999999996,0.0024858333333333538
10.700000000000017,0.3435683333333333,0.3435683333333333,0.0024858333333333538
10.750000000000018,0.34605416666666666,0.34605416666666666,0.0024858333333332983
10.800000000000018,0.34853999999999996,0.34853999999999996,0.0024858333333333538
10.85000000000002,0.3510258333333333,0.3510258333333333,0.0024858333333333538
10.90000000000002,0.35351166666666667,0.35351166666666667,0.0024858333333332983
10.95000000000002,0.35599749999999997,0.35599749999999997,0.0024858333333333538
11.000000000000021,0.3584833333333333,0.3584833333333333,0.0022241666666666937
11.050000000000022,0.3562591666666666,0.3562591666666666,0.002224166666666638
11.100000000000023,0.354035,0.354035,0.0022241666666666937
11.150000000000023,0.3518108333333333,0.3518108333333333,0.002224166666666638
11.200000000000024,0.34958666666666666,0.34958666666666666,0.0022241666666666937
11.250000000000025,0.34736249999999996,0.34736249999999996,0.002224166666666638
11.300000000000026,0.3451383333333333,0.3451383333333333,0.0022241666666666937
11.350000000000026,0.34291416666666663,0.34291416666666663,0.002224166666666638
11.400000000000027,0.34069,0.34069,0.0022241666666666937
11.450000000000028,0.3384658333333333,0.3384658333333333,0.002224166666666638
11.500000000000028,0.33624166666666666,0.33624166666666666,0.0022241666666666937
11.55000000000003,0.33401749999999997,0.33401749999999997,0.0022241666666666937
11.60000000000003,0.3317933333333333,0.3317933333333333,0.002224166666666638
11.65000000000003,0.32956916666666664,0.32956916666666664,0.0022241666666666937
11.700000000000031,0.32734499999999994,0.32734499999999994,0.002224166666666638
11.750000000000032,0.3251208333333333,0.3251208333333333,0.0022241666666666937
11.800000000000033,0.3228966666666666,0.3228966666666666,0.002224166666666638
11.850000000000033,0.32067249999999997,0.32067249999999997,0.0022241666666666937
11.900000000000034,0.3184483333333333,0.3184483333333333,0.002224166666666638
11.950000000000035,0.31622416666666664,0.31622416666666664,0.0022241666666666937
12.000000000000036,0.31399999999999995,0.31399999999999995,0.0
12.050000000000036,0.31399999999999995,0.31399999999999995,0.0
12.100000000000037,0.31399999999999995,0.31399999999999995,0.0
12.150000000000038,0.31399999999999995,0.31399999999999995,0.0
12.200000000000038,0.31399999999999995,0.31399999999999995,0.0
12.250000000000039,0.31399999999999995,0.31399999999999995,0.0
12.30000000000004,0.31399999999999995,0.31399999999999995,0.0
12.35000000000004,0.31399999999999995,0.31399999999999995,0.0
12.400000000000041,0.31399999999999995,0.31399999999999995,0.0
12.450000000000042,0.31399999999999995,0.31399999999999995,0.0
12.500000000000043,0.31399999999999995,0.31399999999999995,0.0
12.550000000000043,0.31399999999999995,0.31399999999999995,0.0
12.600000000000044,0.31399999999999995,0.31399999999999995,0.0
12.650000000000045,0.31399999999999995,0.31399999999999995,0.0
12.700000000000045,0.31399999999999995,0.31399999999999995,0.0
12.750000000000046,0.31399999999999995,0.31399999999999995,0.0
12.800000000000047,0.31399999999999995,0.31399999999999995,0.0
12.850000000000048,0.31399999999999995,0.31399999999999995,0.0
12.900000000000048,0.31399999999999995,0.31399999999999995,0.0
12.950000000000049,0.31399999999999995,0.31399999999999995,0.0
13.00000000000005,0.31399999999999995,0.31399999999999995,0.0
13.05000000000005,0.31399999999999995,0.31399999999999995,0.0
