Time[s],Dist[m],Velocity[m/s],1step_diff[m/s]
0.05,0.004617647058823525,0.00923529411764705,0.009235294117647064
0.1,0.009235294117647057,0.018470588235294114,0.009235294117647064
0.15000000000000002,0.013852941176470589,0.027705882352941177,0.009235294117647057
0.2,0.018470588235294117,0.036941176470588234,0.009235294117647057
0.25,0.023088235294117646,0.04617647058823529,0.009235294117647064
0.3,0.027705882352941177,0.055411764705882355,0.009235294117647064
0.35,0.03232352941176471,0.06464705882352942,0.009235294117647064
0.39999999999999997,0.03694117647058824,0.07388235294117648,0.00923529411764705
0.44999999999999996,0.041558823529411766,0.08311764705882353,0.009235294117647064
0.49999999999999994,0.0461764705882353,0.0923529411764706,0.0002916408668730691
0.5499999999999999,0.04603065015479876,0.09206130030959753,0.00029164086687305524
0.6,0.045884829721362236,0.09176965944272447,0.0002916408668730691
0.65,0.0457390092879257,0.0914780185758514,0.0002916408668730691
0.7000000000000001,0.04559318885448917,0.09118637770897833,0.00029164086687305524
0.7500000000000001,0.04544736842105264,0.09089473684210528,0.0002916408668730691
0.8000000000000002,0.045301547987616105,0.09060309597523221,0.0002916408668730691
0.8500000000000002,0.04515572755417957,0.09031145510835914,0.0002916408668730691
0.9000000000000002,0.045009907120743035,0.09001981424148607,0.00029164086687305524
0.9500000000000003,0.04486408668730651,0.08972817337461302,0.0002916408668730691
1.0000000000000002,0.04471826625386997,0.08943653250773995,0.0006804953560371474
1.0500000000000003,0.0443780185758514,0.0887560371517028,0.0006804953560371613
1.1000000000000003,0.04403777089783282,0.08807554179566564,0.0006804953560371474
1.1500000000000004,0.043697523219814245,0.08739504643962849,0.0006804953560371474
1.2000000000000004,0.04335727554179567,0.08671455108359134,0.0006804953560371613
1.2500000000000004,0.04301702786377709,0.08603405572755418,0.0006804953560371474
1.3000000000000005,0.04267678018575852,0.08535356037151703,0.0006804953560371474
1.3500000000000005,0.042336532507739943,0.08467306501547989,0.0006804953560371474
1.4000000000000006,0.04199628482972137,0.08399256965944274,0.0006804953560371613
1.4500000000000006,0.04165603715170279,0.08331207430340558,0.0006804953560371474
1.5000000000000007,0.041315789473684215,0.08263157894736843,0.002403827751196172
1.5500000000000007,0.0425177033492823,0.0850354066985646,0.002403827751196172
1.6000000000000008,0.04371961722488039,0.08743923444976077,0.002403827751196172
1.6500000000000008,0.04492153110047847,0.08984306220095695,0.002403827751196186
1.7000000000000008,0.046123444976076566,0.09224688995215313,0.002403827751196158
1.7500000000000009,0.047325358851674645,0.09465071770334929,0.002403827751196186
1.800000000000001,0.04852727272727274,0.09705454545454548,0.002403827751196172
1.850000000000001,0.049729186602870824,0.09945837320574165,0.002403827751196172
1.900000000000001,0.05093110047846891,0.10186220095693782,0.002403827751196172
1.950000000000001,0.052133014354066996,0.10426602870813399,0.002403827751196172
2.000000000000001,0.05333492822966508,0.10666985645933016,0.0020945116802701946
2.0500000000000007,0.05438218406980018,0.10876436813960036,0.0020945116802701946
2.1000000000000005,0.05542943990993528,0.11085887981987055,0.0020945116802701808
2.1500000000000004,0.05647669575007037,0.11295339150014073,0.0020945116802701946
2.2,0.057523951590205465,0.11504790318041093,0.0020945116802701946
2.25,0.05857120743034056,0.11714241486068112,0.0020945116802701946
2.3,0.05961846327047566,0.11923692654095132,0.0020945116802701946
2.3499999999999996,0.06066571911061076,0.12133143822122151,0.0020945116802701808
2.3999999999999995,0.06171297495074585,0.1234259499014917,0.0020945116802701946
2.4499999999999993,0.06276023079088094,0.1255204615817619,0.0020945116802701946
2.499999999999999,0.06380748663101604,0.12761497326203208,0.00352620320855615
2.549999999999999,0.062044385026737967,0.12408877005347593,0.00352620320855615
2.5999999999999988,0.06028128342245989,0.12056256684491978,0.00352620320855615
2.6499999999999986,0.058518181818181816,0.11703636363636363,0.00352620320855615
2.6999999999999984,0.05675508021390374,0.11351016042780748,0.00352620320855615
2.7499999999999982,0.054991978609625666,0.10998395721925133,0.0035262032085561362
2.799999999999998,0.0532288770053476,0.1064577540106952,0.00352620320855615
2.849999999999998,0.05146577540106952,0.10293155080213905,0.00352620320855615
2.8999999999999977,0.04970267379679145,0.0994053475935829,0.00352620320855615
2.9499999999999975,0.04793957219251337,0.09587914438502675,0.00352620320855615
2.9999999999999973,0.0461764705882353,0.0923529411764706,0.003878823529411768
3.049999999999997,0.04811588235294118,0.09623176470588236,0.003878823529411754
3.099999999999997,0.05005529411764706,0.10011058823529412,0.003878823529411768
3.149999999999997,0.05199470588235294,0.10398941176470589,0.003878823529411768
3.1999999999999966,0.05393411764705883,0.10786823529411765,0.003878823529411768
3.2499999999999964,0.05587352941176471,0.11174705882352942,0.003878823529411754
3.2999999999999963,0.05781294117647059,0.11562588235294118,0.003878823529411768
3.349999999999996,0.05975235294117647,0.11950470588235294,0.003878823529411768
3.399999999999996,0.061691764705882356,0.12338352941176471,0.003878823529411754
3.4499999999999957,0.06363117647058823,0.12726235294117647,0.003878823529411768
3.4999999999999956,0.06557058823529412,0.13114117647058823,0.006623025210084038
3.5499999999999954,0.06888210084033614,0.13776420168067227,0.00662302521008401
3.599999999999995,0.07219361344537814,0.14438722689075628,0.006623025210084038
3.649999999999995,0.07550512605042016,0.15101025210084032,0.006623025210084038
3.699999999999995,0.07881663865546218,0.15763327731092436,0.006623025210084038
3.7499999999999947,0.0821281512605042,0.1642563025210084,0.006623025210084038
3.7999999999999945,0.08543966386554622,0.17087932773109243,0.00662302521008401
3.8499999999999943,0.08875117647058822,0.17750235294117644,0.006623025210084038
3.899999999999994,0.09206268907563024,0.18412537815126048,0.006623025210084038
3.949999999999994,0.09537420168067226,0.19074840336134452,0.006623025210084038
3.999999999999994,0.09868571428571428,0.19737142857142856,0.0034390476190476194
4.049999999999994,0.10040523809523809,0.20081047619047618,0.0034390476190476194
4.099999999999993,0.1021247619047619,0.2042495238095238,0.003439047619047647
4.149999999999993,0.10384428571428572,0.20768857142857144,0.0034390476190476194
4.199999999999993,0.10556380952380953,0.21112761904761906,0.0034390476190476194
4.249999999999993,0.10728333333333334,0.21456666666666668,0.0034390476190476194
4.299999999999993,0.10900285714285715,0.2180057142857143,0.0034390476190476194
4.3499999999999925,0.11072238095238096,0.22144476190476192,0.003439047619047647
4.399999999999992,0.11244190476190478,0.22488380952380957,0.0034390476190476194
4.449999999999992,0.1141614285714286,0.2283228571428572,0.0034390476190476194
4.499999999999992,0.1158809523809524,0.2317619047619048,0.0029904761904761823
4.549999999999992,0.1173761904761905,0.234752380952381,0.0029904761904761823
4.599999999999992,0.11887142857142859,0.23774285714285717,0.0029904761904761823
4.6499999999999915,0.12036666666666668,0.24073333333333335,0.00299047619047621
4.699999999999991,0.12186190476190478,0.24372380952380956,0.0029904761904761545
4.749999999999991,0.12335714285714286,0.24671428571428572,0.00299047619047621
4.799999999999991,0.12485238095238096,0.24970476190476193,0.0029904761904761545
4.849999999999991,0.12634761904761904,0.2526952380952381,0.00299047619047621
4.899999999999991,0.12784285714285715,0.2556857142857143,0.0029904761904761545
4.94999999999999,0.12933809523809522,0.25867619047619045,0.00299047619047621
4.99999999999999,0.13083333333333333,0.26166666666666666,0.006977777777777805
5.04999999999999,0.12734444444444443,0.25468888888888885,0.0069777777777777494
5.09999999999999,0.12385555555555555,0.2477111111111111,0.006977777777777777
5.14999999999999,0.12036666666666666,0.24073333333333333,0.006977777777777777
5.1999999999999895,0.11687777777777777,0.23375555555555555,0.0069777777777777494
5.249999999999989,0.1133888888888889,0.2267777777777778,0.006977777777777777
5.299999999999989,0.10990000000000001,0.21980000000000002,0.006977777777777777
5.349999999999989,0.10641111111111112,0.21282222222222225,0.006977777777777777
5.399999999999989,0.10292222222222223,0.20584444444444447,0.006977777777777777
5.449999999999989,0.09943333333333335,0.1988666666666667,0.006977777777777777
5.4999999999999885,0.09594444444444446,0.19188888888888891,0.0008722222222222187
5.549999999999988,0.09638055555555557,0.19276111111111113,0.0008722222222222187
5.599999999999988,0.09681666666666668,0.19363333333333335,0.0008722222222222187
5.649999999999988,0.09725277777777779,0.19450555555555557,0.0008722222222222187
5.699999999999988,0.0976888888888889,0.1953777777777778,0.0008722222222221909
5.749999999999988,0.09812499999999999,0.19624999999999998,0.0008722222222222187
5.799999999999987,0.0985611111111111,0.1971222222222222,0.0008722222222222187
5.849999999999987,0.09899722222222221,0.19799444444444442,0.0008722222222222187
5.899999999999987,0.09943333333333332,0.19886666666666664,0.0008722222222222187
5.949999999999987,0.09986944444444443,0.19973888888888885,0.0008722222222222187
5.999999999999987,0.10030555555555554,0.20061111111111107,0.0034888888888889025
6.0499999999999865,0.10204999999999999,0.20409999999999998,0.0034888888888889025
6.099999999999986,0.10379444444444444,0.20758888888888888,0.0034888888888888747
6.149999999999986,0.10553888888888888,0.21107777777777775,0.0034888888888889025
6.199999999999986,0.10728333333333333,0.21456666666666666,0.0034888888888889025
6.249999999999986,0.10902777777777778,0.21805555555555556,0.0034888888888889025
6.299999999999986,0.11077222222222223,0.22154444444444446,0.0034888888888889025
6.349999999999985,0.11251666666666668,0.22503333333333336,0.0034888888888888747
6.399999999999985,0.11426111111111112,0.22852222222222224,0.0034888888888889025
6.449999999999985,0.11600555555555557,0.23201111111111114,0.0034888888888889025
6.499999999999985,0.11775000000000002,0.23550000000000004,0.001962500000000006
6.549999999999985,0.11676875000000002,0.23353750000000004,0.001962500000000006
6.5999999999999845,0.11578750000000002,0.23157500000000003,0.001962499999999978
6.649999999999984,0.11480625000000003,0.22961250000000005,0.001962500000000006
6.699999999999984,0.11382500000000002,0.22765000000000005,0.001962500000000006
6.749999999999984,0.11284375000000002,0.22568750000000004,0.001962500000000006
6.799999999999984,0.11186250000000002,0.22372500000000003,0.001962500000000006
6.849999999999984,0.11088125000000001,0.22176250000000003,0.001962499999999978
6.8999999999999835,0.10990000000000003,0.21980000000000005,0.001962500000000006
6.949999999999983,0.10891875000000002,0.21783750000000004,0.001962500000000006
6.999999999999983,0.10793750000000002,0.21587500000000004,0.001962500000000006
7.049999999999983,0.10695625000000002,0.21391250000000003,0.001962500000000006
7.099999999999983,0.10597500000000001,0.21195000000000003,0.001962500000000006
7.149999999999983,0.10499375000000001,0.20998750000000002,0.001962500000000006
7.199999999999982,0.10401250000000001,0.20802500000000002,0.001962499999999978
7.249999999999982,0.10303125000000002,0.20606250000000004,0.001962500000000006
7.299999999999982,0.10205000000000002,0.20410000000000003,0.001962500000000006
7.349999999999982,0.10106875000000001,0.20213750000000003,0.001962500000000006
7.399999999999982,0.10008750000000001,0.20017500000000002,0.001962500000000006
7.4499999999999815,0.09910625,0.1982125,0.001962500000000006
7.499999999999981,0.098125,0.19625,0.0015263888888888966
7.549999999999981,0.09736180555555556,0.1947236111111111,0.0015263888888888966
7.599999999999981,0.09659861111111111,0.19319722222222221,0.0015263888888888688
7.649999999999981,0.09583541666666667,0.19167083333333335,0.0015263888888888966
7.699999999999981,0.09507222222222222,0.19014444444444445,0.0015263888888888966
7.7499999999999805,0.09430902777777778,0.18861805555555555,0.0015263888888888966
7.79999999999998,0.09354583333333333,0.18709166666666666,0.0015263888888888966
7.84999999999998,0.09278263888888888,0.18556527777777776,0.0015263888888888688
7.89999999999998,0.09201944444444445,0.1840388888888889,0.0015263888888888966
7.94999999999998,0.09125625,0.1825125,0.0015263888888888966
7.99999999999998,0.09049305555555555,0.1809861111111111,0.003333134920634917
8.04999999999998,0.09215962301587301,0.18431924603174601,0.0033331349206349448
8.09999999999998,0.09382619047619048,0.18765238095238096,0.003333134920634917
8.14999999999998,0.09549275793650794,0.19098551587301588,0.003333134920634917
8.199999999999982,0.0971593253968254,0.1943186507936508,0.003333134920634917
8.249999999999982,0.09882589285714286,0.1976517857142857,0.0033331349206349448
8.299999999999983,0.10049246031746033,0.20098492063492066,0.003333134920634917
8.349999999999984,0.10215902777777779,0.20431805555555557,0.003333134920634917
8.399999999999984,0.10382559523809524,0.2076511904761905,0.0033331349206349448
8.449999999999985,0.10549216269841272,0.21098432539682543,0.003333134920634917
8.499999999999986,0.10715873015873018,0.21431746031746035,0.00249206349206349
8.549999999999986,0.10840476190476192,0.21680952380952384,0.00249206349206349
8.599999999999987,0.10965079365079367,0.21930158730158733,0.00249206349206349
8.649999999999988,0.11089682539682541,0.22179365079365082,0.00249206349206349
8.699999999999989,0.11214285714285716,0.2242857142857143,0.00249206349206349
8.74999999999999,0.1133888888888889,0.2267777777777778,0.0024920634920635176
8.79999999999999,0.11463492063492066,0.22926984126984132,0.00249206349206349
8.84999999999999,0.1158809523809524,0.2317619047619048,0.00249206349206349
8.899999999999991,0.11712698412698415,0.2342539682539683,0.00249206349206349
8.949999999999992,0.1183730158730159,0.2367460317460318,0.00249206349206349
8.999999999999993,0.11961904761904764,0.23923809523809528,0.0032895238095237977
9.049999999999994,0.12126380952380954,0.24252761904761908,0.0032895238095238255
9.099999999999994,0.12290857142857145,0.2458171428571429,0.0032895238095237977
9.149999999999995,0.12455333333333335,0.2491066666666667,0.0032895238095237977
9.199999999999996,0.12619809523809525,0.2523961904761905,0.0032895238095237977
9.249999999999996,0.12784285714285715,0.2556857142857143,0.0032895238095237977
9.299999999999997,0.12948761904761905,0.2589752380952381,0.0032895238095238533
9.349999999999998,0.13113238095238097,0.26226476190476194,0.0032895238095237977
9.399999999999999,0.13277714285714287,0.26555428571428574,0.0032895238095237977
9.45,0.13442190476190477,0.26884380952380954,0.0032895238095237977
9.5,0.13606666666666667,0.27213333333333334,0.0010466666666666402
9.55,0.13659,0.27318,0.0010466666666666957
9.600000000000001,0.13711333333333334,0.2742266666666667,0.0010466666666666402
9.650000000000002,0.13763666666666666,0.2752733333333333,0.0010466666666666957
9.700000000000003,0.13816,0.27632,0.0010466666666666402
9.750000000000004,0.13868333333333333,0.27736666666666665,0.0010466666666666402
9.800000000000004,0.13920666666666665,0.2784133333333333,0.0010466666666666957
9.850000000000005,0.13973,0.27946,0.0010466666666666402
9.900000000000006,0.1402533333333333,0.2805066666666666,0.0010466666666666957
9.950000000000006,0.14077666666666666,0.2815533333333333,0.0010466666666666402
10.000000000000007,0.14129999999999998,0.28259999999999996,0.0022428571428571575
10.050000000000008,0.1401785714285714,0.2803571428571428,0.002242857142857102
10.100000000000009,0.13905714285714285,0.2781142857142857,0.0022428571428571575
10.15000000000001,0.13793571428571427,0.27587142857142855,0.0022428571428571575
10.20000000000001,0.1368142857142857,0.2736285714285714,0.0022428571428571575
10.25000000000001,0.13569285714285712,0.27138571428571423,0.002242857142857102
10.300000000000011,0.13457142857142856,0.26914285714285713,0.0022428571428571575
10.350000000000012,0.13344999999999999,0.26689999999999997,0.0022428571428571575
10.400000000000013,0.1323285714285714,0.2646571428571428,0.002242857142857102
10.450000000000014,0.13120714285714286,0.2624142857142857,0.0022428571428571575
10.500000000000014,0.13008571428571428,0.26017142857142855,0.0002242857142857324
10.550000000000015,0.1299735714285714,0.2599471428571428,0.0002242857142856769
10.600000000000016,0.12986142857142857,0.25972285714285714,0.0002242857142857324
10.650000000000016,0.1297492857142857,0.2594985714285714,0.0002242857142856769
10.700000000000017,0.12963714285714287,0.25927428571428573,0.0002242857142857324
10.750000000000018,0.129525,0.25905,0.0002242857142857324
10.800000000000018,0.12941285714285714,0.25882571428571427,0.0002242857142856769
10.85000000000002,0.1293007142857143,0.2586014285714286,0.0002242857142857324
10.90000000000002,0.12918857142857143,0.25837714285714286,0.0002242857142856769
10.95000000000002,0.1290764285714286,0.2581528571428572,0.0002242857142857324
11.000000000000021,0.12896428571428573,0.25792857142857145,0.0003738095238094985
11.050000000000022,0.12915119047619047,0.25830238095238095,0.000373809523809554
11.100000000000023,0.12933809523809525,0.2586761904761905,0.0003738095238094985
11.150000000000023,0.129525,0.25905,0.000373809523809554
11.200000000000024,0.12971190476190478,0.25942380952380956,0.0003738095238094985
11.250000000000025,0.12989880952380953,0.25979761904761905,0.0003738095238094985
11.300000000000026,0.13008571428571428,0.26017142857142855,0.000373809523809554
11.350000000000026,0.13027261904761905,0.2605452380952381,0.0003738095238094985
11.400000000000027,0.1304595238095238,0.2609190476190476,0.000373809523809554
11.450000000000028,0.13064642857142858,0.26129285714285716,0.0003738095238094985
11.500000000000028,0.13083333333333333,0.26166666666666666,0.002616666666666656
11.55000000000003,0.13214166666666666,0.2642833333333333,0.002616666666666656
11.60000000000003,0.13344999999999999,0.26689999999999997,0.0026166666666667115
11.65000000000003,0.13475833333333334,0.2695166666666667,0.002616666666666656
11.700000000000031,0.13606666666666667,0.27213333333333334,0.002616666666666656
11.750000000000032,0.137375,0.27475,0.002616666666666656
11.800000000000033,0.13868333333333333,0.27736666666666665,0.002616666666666656
11.850000000000033,0.13999166666666665,0.2799833333333333,0.0026166666666667115
11.900000000000034,0.1413,0.2826,0.002616666666666656
11.950000000000035,0.14260833333333334,0.2852166666666667,0.002616666666666656
12.000000000000036,0.14391666666666666,0.28783333333333333,0.0036633333333333518
12.050000000000036,0.142085,0.28417,0.0036633333333332962
12.100000000000037,0.14025333333333334,0.2805066666666667,0.0036633333333333518
12.150000000000038,0.13842166666666667,0.27684333333333333,0.0036633333333332962
12.200000000000038,0.13659000000000002,0.27318000000000003,0.0036633333333333518
12.250000000000039,0.13475833333333334,0.2695166666666667,0.0036633333333333518
12.30000000000004,0.13292666666666667,0.26585333333333333,0.0036633333333332962
12.35000000000004,0.13109500000000002,0.26219000000000003,0.0036633333333333518
12.400000000000041,0.12926333333333334,0.2585266666666667,0.0036633333333332962
12.450000000000042,0.1274316666666667,0.2548633333333334,0.0036633333333333518
12.500000000000043,0.12560000000000002,0.25120000000000003,0.004709999999999992
12.550000000000043,0.127955,0.25591,0.004709999999999992
12.600000000000044,0.13031,0.26062,0.004709999999999992
12.650000000000045,0.132665,0.26533,0.004709999999999992
12.700000000000045,0.13502,0.27004,0.0047099999999999365
