Time[s],Dist[m],Velocity[m/s],1step_diff[m/s]
0.05,0.0019146341463414616,0.0038292682926829233,0.0038292682926829302
0.1,0.0038292682926829268,0.0076585365853658535,0.0038292682926829268
0.15000000000000002,0.00574390243902439,0.01148780487804878,0.0038292682926829268
0.2,0.0076585365853658535,0.015317073170731707,0.0038292682926829302
0.25,0.009573170731707319,0.019146341463414637,0.0038292682926829268
0.3,0.011487804878048782,0.022975609756097564,0.0038292682926829268
0.35,0.013402439024390245,0.02680487804878049,0.0038292682926829302
0.39999999999999997,0.01531707317073171,0.03063414634146342,0.0038292682926829233
0.44999999999999996,0.017231707317073172,0.034463414634146344,0.0038292682926829302
0.49999999999999994,0.019146341463414637,0.038292682926829275,0.0
0.5499999999999999,0.019146341463414637,0.038292682926829275,0.0
0.6,0.019146341463414637,0.038292682926829275,0.0
0.65,0.019146341463414637,0.038292682926829275,0.0
0.7000000000000001,0.019146341463414637,0.038292682926829275,0.0
0.7500000000000001,0.019146341463414637,0.038292682926829275,0.0
0.8000000000000002,0.019146341463414637,0.038292682926829275,0.0
0.8500000000000002,0.019146341463414637,0.038292682926829275,0.0
0.9000000000000002,0.019146341463414637,0.038292682926829275,0.0
0.9500000000000003,0.019146341463414637,0.038292682926829275,0.0
1.0000000000000002,0.019146341463414637,0.038292682926829275,0.0
1.0500000000000003,0.019146341463414637,0.038292682926829275,0.0
1.1000000000000003,0.019146341463414637,0.038292682926829275,0.0
1.1500000000000004,0.019146341463414637,0.038292682926829275,0.0
1.2000000000000004,0.019146341463414637,0.038292682926829275,0.0
1.2500000000000004,0.019146341463414637,0.038292682926829275,0.0
1.3000000000000005,0.019146341463414637,0.038292682926829275,0.0
1.3500000000000005,0.019146341463414637,0.038292682926829275,0.0
1.4000000000000006,0.019146341463414637,0.038292682926829275,0.0
1.4500000000000006,0.019146341463414637,0.038292682926829275,0.0
1.5000000000000007,0.019146341463414637,0.038292682926829275,0.0
1.5500000000000007,0.019146341463414637,0.038292682926829275,0.0
1.6000000000000008,0.019146341463414637,0.038292682926829275,0.0
1.6500000000000008,0.019146341463414637,0.038292682926829275,0.0
1.7000000000000008,0.019146341463414637,0.038292682926829275,0.0
1.7500000000000009,0.019146341463414637,0.038292682926829275,0.0
1.800000000000001,0.019146341463414637,0.038292682926829275,0.0
1.850000000000001,0.019146341463414637,0.038292682926829275,0.0
1.900000000000001,0.019146341463414637,0.038292682926829275,0.0
1.950000000000001,0.019146341463414637,0.038292682926829275,0.0
2.000000000000001,0.019146341463414637,0.038292682926829275,0.001777874564459929
2.0500000000000007,0.0200352787456446,0.0400705574912892,0.001777874564459929
2.1000000000000005,0.020924216027874566,0.04184843205574913,0.0017778745644599359
2.1500000000000004,0.021813153310104534,0.04362630662020907,0.001777874564459929
2.2,0.0227020905923345,0.045404181184669,0.001777874564459929
2.25,0.023591027874564463,0.047182055749128926,0.0017778745644599359
2.3,0.02447996515679443,0.04895993031358886,0.001777874564459929
2.3499999999999996,0.025368902439024395,0.05073780487804879,0.001777874564459929
2.3999999999999995,0.02625783972125436,0.05251567944250872,0.0017778745644599359
2.4499999999999993,0.027146777003484328,0.054293554006968656,0.001777874564459929
2.499999999999999,0.028035714285714292,0.056071428571428585,0.0
2.549999999999999,0.028035714285714292,0.056071428571428585,0.0
2.5999999999999988,0.028035714285714292,0.056071428571428585,0.0
2.6499999999999986,0.028035714285714292,0.056071428571428585,0.0
2.6999999999999984,0.028035714285714292,0.056071428571428585,0.0
2.7499999999999982,0.028035714285714292,0.056071428571428585,0.0
2.799999999999998,0.028035714285714292,0.056071428571428585,0.0
2.849999999999998,0.028035714285714292,0.056071428571428585,0.0
2.8999999999999977,0.028035714285714292,0.056071428571428585,0.0
2.9499999999999975,0.028035714285714292,0.056071428571428585,0.0
2.9999999999999973,0.028035714285714292,0.056071428571428585,0.0023674603174603168
3.049999999999997,0.02921944444444445,0.0584388888888889,0.00236746031746031
3.099999999999997,0.030403174603174606,0.06080634920634921,0.00236746031746031
3.149999999999997,0.03158690476190476,0.06317380952380952,0.0023674603174603237
3.1999999999999966,0.03277063492063492,0.06554126984126984,0.00236746031746031
3.2499999999999964,0.03395436507936508,0.06790873015873015,0.0023674603174603237
3.2999999999999963,0.03513809523809524,0.07027619047619048,0.00236746031746031
3.349999999999996,0.036321825396825394,0.07264365079365079,0.00236746031746031
3.399999999999996,0.03750555555555555,0.0750111111111111,0.0023674603174603237
3.4499999999999957,0.03868928571428571,0.07737857142857142,0.00236746031746031
3.4999999999999956,0.039873015873015866,0.07974603174603173,0.009469841269841267
3.5499999999999954,0.0446079365079365,0.089215873015873,0.009469841269841267
3.599999999999995,0.04934285714285713,0.09868571428571427,0.009469841269841267
3.649999999999995,0.054077777777777766,0.10815555555555553,0.009469841269841267
3.699999999999995,0.0588126984126984,0.1176253968253968,0.009469841269841267
3.7499999999999947,0.06354761904761903,0.12709523809523807,0.009469841269841267
3.7999999999999945,0.06828253968253967,0.13656507936507933,0.009469841269841267
3.8499999999999943,0.0730174603174603,0.1460349206349206,0.009469841269841267
3.899999999999994,0.07775238095238093,0.15550476190476187,0.009469841269841267
3.949999999999994,0.08248730158730157,0.16497460317460313,0.009469841269841267
3.999999999999994,0.0872222222222222,0.1744444444444444,0.0019936507936507974
4.049999999999994,0.0882190476190476,0.1764380952380952,0.0019936507936507974
4.099999999999993,0.089215873015873,0.178431746031746,0.0019936507936507697
4.149999999999993,0.09021269841269838,0.18042539682539677,0.0019936507936507974
4.199999999999993,0.09120952380952378,0.18241904761904756,0.0019936507936507974
4.249999999999993,0.09220634920634918,0.18441269841269836,0.0019936507936507974
4.299999999999993,0.09320317460317458,0.18640634920634916,0.0019936507936507974
4.3499999999999925,0.09419999999999998,0.18839999999999996,0.0019936507936507697
4.399999999999992,0.09519682539682536,0.19039365079365073,0.0019936507936507974
4.449999999999992,0.09619365079365076,0.19238730158730152,0.0019936507936507974
4.499999999999992,0.09719047619047616,0.19438095238095232,0.00299047619047621
4.549999999999992,0.09868571428571427,0.19737142857142853,0.0029904761904761823
4.599999999999992,0.10018095238095236,0.2003619047619047,0.00299047619047621
4.6499999999999915,0.10167619047619046,0.20335238095238092,0.00299047619047621
4.699999999999991,0.10317142857142857,0.20634285714285713,0.0029904761904761823
4.749999999999991,0.10466666666666666,0.20933333333333332,0.00299047619047621
4.799999999999991,0.10616190476190476,0.21232380952380953,0.00299047619047621
4.849999999999991,0.10765714285714287,0.21531428571428574,0.00299047619047621
4.899999999999991,0.10915238095238097,0.21830476190476195,0.0029904761904761823
4.94999999999999,0.11064761904761906,0.22129523809523813,0.00299047619047621
4.99999999999999,0.11214285714285717,0.22428571428571434,0.009345238095238101
5.04999999999999,0.10747023809523812,0.21494047619047624,0.009345238095238101
5.09999999999999,0.10279761904761907,0.20559523809523814,0.009345238095238101
5.14999999999999,0.09812500000000002,0.19625000000000004,0.009345238095238101
5.1999999999999895,0.09345238095238097,0.18690476190476193,0.009345238095238101
5.249999999999989,0.08877976190476192,0.17755952380952383,0.009345238095238101
5.299999999999989,0.08410714285714287,0.16821428571428573,0.009345238095238101
5.349999999999989,0.07943452380952382,0.15886904761904763,0.009345238095238101
5.399999999999989,0.07476190476190477,0.14952380952380953,0.009345238095238101
5.449999999999989,0.07008928571428572,0.14017857142857143,0.009345238095238101
5.4999999999999885,0.06541666666666666,0.13083333333333333,0.0009515151515151477
5.549999999999988,0.06589242424242424,0.13178484848484848,0.0009515151515151477
5.599999999999988,0.06636818181818181,0.13273636363636362,0.0009515151515151477
5.649999999999988,0.06684393939393939,0.13368787878787877,0.0009515151515151477
5.699999999999988,0.06731969696969696,0.13463939393939392,0.0009515151515151754
5.749999999999988,0.06779545454545455,0.1355909090909091,0.0009515151515151477
5.799999999999987,0.06827121212121212,0.13654242424242424,0.0009515151515151477
5.849999999999987,0.0687469696969697,0.1374939393939394,0.0009515151515151477
5.899999999999987,0.06922272727272727,0.13844545454545454,0.0009515151515151477
5.949999999999987,0.06969848484848484,0.13939696969696969,0.0009515151515151477
5.999999999999987,0.07017424242424242,0.14034848484848483,0.001299184149184146
6.0499999999999865,0.06952465034965034,0.1390493006993007,0.001299184149184146
6.099999999999986,0.06887505827505827,0.13775011655011654,0.001299184149184146
6.149999999999986,0.0682254662004662,0.1364509324009324,0.001299184149184146
6.199999999999986,0.06757587412587412,0.13515174825174825,0.001299184149184146
6.249999999999986,0.06692628205128205,0.1338525641025641,0.001299184149184146
6.299999999999986,0.06627668997668998,0.13255337995337996,0.001299184149184146
6.349999999999985,0.0656270979020979,0.1312541958041958,0.001299184149184146
6.399999999999985,0.06497750582750583,0.12995501165501167,0.001299184149184146
6.449999999999985,0.06432791375291376,0.12865582750582752,0.001299184149184146
6.499999999999985,0.06367832167832169,0.12735664335664337,0.0014882672882672865
6.549999999999985,0.06442245532245533,0.12884491064491066,0.0014882672882672865
6.5999999999999845,0.06516658896658897,0.13033317793317795,0.0014882672882672865
6.649999999999984,0.06591072261072262,0.13182144522144523,0.0014882672882672865
6.699999999999984,0.06665485625485626,0.13330971250971252,0.0014882672882672865
6.749999999999984,0.0673989898989899,0.1347979797979798,0.0014882672882672865
6.799999999999984,0.06814312354312355,0.1362862470862471,0.0014882672882672865
6.849999999999984,0.06888725718725719,0.13777451437451438,0.0014882672882672865
6.8999999999999835,0.06963139083139083,0.13926278166278167,0.0014882672882672865
6.949999999999983,0.07037552447552448,0.14075104895104895,0.0014882672882672865
6.999999999999983,0.07111965811965812,0.14223931623931624,0.0043107905982905925
7.049999999999983,0.07327505341880342,0.14655010683760683,0.0043107905982905925
7.099999999999983,0.07543044871794871,0.15086089743589742,0.0043107905982905925
7.149999999999983,0.07758584401709401,0.15517168803418802,0.0043107905982905925
7.199999999999982,0.0797412393162393,0.1594824786324786,0.0043107905982905925
7.249999999999982,0.0818966346153846,0.1637932692307692,0.0043107905982905925
7.299999999999982,0.0840520299145299,0.1681040598290598,0.0043107905982905925
7.349999999999982,0.08620742521367519,0.17241485042735039,0.0043107905982905925
7.399999999999982,0.08836282051282049,0.17672564102564098,0.0043107905982905925
7.4499999999999815,0.09051821581196579,0.18103643162393157,0.0043107905982905925
7.499999999999981,0.09267361111111108,0.18534722222222216,0.0047972222222222305
7.549999999999981,0.0950722222222222,0.1901444444444444,0.0047972222222222305
7.599999999999981,0.09747083333333331,0.19494166666666662,0.0047972222222222305
7.649999999999981,0.09986944444444443,0.19973888888888885,0.0047972222222222305
7.699999999999981,0.10226805555555554,0.20453611111111109,0.0047972222222222305
7.7499999999999805,0.10466666666666666,0.20933333333333332,0.0047972222222222305
7.79999999999998,0.10706527777777777,0.21413055555555555,0.0047972222222222305
7.84999999999998,0.10946388888888889,0.21892777777777778,0.0047972222222222305
7.89999999999998,0.1118625,0.223725,0.0047972222222222305
7.94999999999998,0.11426111111111112,0.22852222222222224,0.0047972222222222305
7.99999999999998,0.11665972222222223,0.23331944444444447,0.004143055555555553
8.04999999999998,0.11458819444444446,0.22917638888888892,0.00414305555555558
8.09999999999998,0.11251666666666667,0.22503333333333334,0.004143055555555553
8.14999999999998,0.11044513888888889,0.22089027777777778,0.00414305555555558
8.199999999999982,0.1083736111111111,0.2167472222222222,0.004143055555555553
8.249999999999982,0.10630208333333332,0.21260416666666665,0.004143055555555553
8.299999999999983,0.10423055555555555,0.2084611111111111,0.00414305555555558
8.349999999999984,0.10215902777777776,0.20431805555555552,0.004143055555555553
8.399999999999984,0.10008749999999998,0.20017499999999996,0.00414305555555558
8.449999999999985,0.09801597222222219,0.19603194444444438,0.004143055555555553
8.499999999999986,0.09594444444444442,0.19188888888888883,0.0017444444444444374
8.549999999999986,0.09681666666666663,0.19363333333333327,0.0017444444444444651
8.599999999999987,0.09768888888888887,0.19537777777777773,0.0017444444444444651
8.649999999999988,0.0985611111111111,0.1971222222222222,0.0017444444444444374
8.699999999999989,0.09943333333333332,0.19886666666666664,0.0017444444444444374
8.74999999999999,0.10030555555555554,0.20061111111111107,0.0017444444444444651
8.79999999999999,0.10117777777777777,0.20235555555555554,0.0017444444444444651
8.84999999999999,0.10205,0.2041,0.0017444444444444374
8.899999999999991,0.10292222222222222,0.20584444444444444,0.0017444444444444374
8.949999999999992,0.10379444444444444,0.20758888888888888,0.0017444444444444651
8.999999999999993,0.10466666666666667,0.20933333333333334,0.0022428571428571298
9.049999999999994,0.10578809523809524,0.21157619047619047,0.0022428571428571575
9.099999999999994,0.10690952380952382,0.21381904761904763,0.0022428571428571298
9.149999999999995,0.10803095238095238,0.21606190476190476,0.0022428571428571298
9.199999999999996,0.10915238095238095,0.2183047619047619,0.0022428571428571575
9.249999999999996,0.11027380952380952,0.22054761904761905,0.0022428571428571298
9.299999999999997,0.11139523809523809,0.22279047619047618,0.0022428571428571298
9.349999999999998,0.11251666666666665,0.2250333333333333,0.0022428571428571298
9.399999999999999,0.11363809523809522,0.22727619047619044,0.0022428571428571575
9.45,0.1147595238095238,0.2295190476190476,0.0022428571428571298
9.5,0.11588095238095236,0.23176190476190472,0.0007476190476190525
9.55,0.11550714285714284,0.23101428571428567,0.0007476190476190248
9.600000000000001,0.11513333333333332,0.23026666666666665,0.0007476190476190248
9.650000000000002,0.11475952380952381,0.22951904761904762,0.0007476190476190525
9.700000000000003,0.11438571428571429,0.22877142857142857,0.0007476190476190525
9.750000000000004,0.11401190476190476,0.22802380952380952,0.0007476190476190248
9.800000000000004,0.11363809523809525,0.2272761904761905,0.0007476190476190248
9.850000000000005,0.11326428571428573,0.22652857142857147,0.0007476190476190525
9.900000000000006,0.11289047619047621,0.22578095238095242,0.0007476190476190525
9.950000000000006,0.11251666666666668,0.22503333333333336,0.0007476190476190248
10.000000000000007,0.11214285714285717,0.22428571428571434,0.0022428571428571298
10.050000000000008,0.11326428571428573,0.22652857142857147,0.0022428571428571575
10.100000000000009,0.11438571428571431,0.22877142857142863,0.0022428571428571298
10.15000000000001,0.11550714285714288,0.23101428571428576,0.0022428571428571575
10.20000000000001,0.11662857142857146,0.2332571428571429,0.0022428571428571298
10.25000000000001,0.11775000000000002,0.23550000000000004,0.0022428571428571298
10.300000000000011,0.11887142857142859,0.23774285714285717,0.0022428571428571575
10.350000000000012,0.11999285714285716,0.23998571428571433,0.0022428571428571298
10.400000000000013,0.12111428571428573,0.24222857142857146,0.0022428571428571575
10.450000000000014,0.12223571428571431,0.24447142857142862,0.0022428571428571298
10.500000000000014,0.12335714285714287,0.24671428571428575,0.0022428571428571298
10.550000000000015,0.12223571428571431,0.24447142857142862,0.0022428571428571575
10.600000000000016,0.12111428571428573,0.24222857142857146,0.0022428571428571298
10.650000000000016,0.11999285714285716,0.23998571428571433,0.0022428571428571575
10.700000000000017,0.11887142857142859,0.23774285714285717,0.0022428571428571298
10.750000000000018,0.11775000000000002,0.23550000000000004,0.0022428571428571298
10.800000000000018,0.11662857142857146,0.2332571428571429,0.0022428571428571575
10.85000000000002,0.11550714285714288,0.23101428571428576,0.0022428571428571298
10.90000000000002,0.11438571428571431,0.22877142857142863,0.0022428571428571575
10.95000000000002,0.11326428571428573,0.22652857142857147,0.0022428571428571298
11.000000000000021,0.11214285714285717,0.22428571428571434,0.003140000000000004
11.050000000000022,0.11371285714285717,0.22742571428571434,0.003139999999999976
11.100000000000023,0.11528285714285716,0.23056571428571432,0.003140000000000004
11.150000000000023,0.11685285714285716,0.23370571428571432,0.003140000000000004
11.200000000000024,0.11842285714285716,0.23684571428571433,0.003139999999999976
11.250000000000025,0.11999285714285715,0.2399857142857143,0.003140000000000004
11.300000000000026,0.12156285714285715,0.2431257142857143,0.003140000000000004
11.350000000000026,0.12313285714285715,0.2462657142857143,0.003140000000000004
11.400000000000027,0.12470285714285716,0.24940571428571431,0.003140000000000004
11.450000000000028,0.12627285714285716,0.2525457142857143,0.003139999999999976
11.500000000000028,0.12784285714285715,0.2556857142857143,0.006616428571428579
11.55000000000003,0.13115107142857144,0.2623021428571429,0.006616428571428523
11.60000000000003,0.1344592857142857,0.2689185714285714,0.006616428571428579
11.65000000000003,0.1377675,0.275535,0.006616428571428579
11.700000000000031,0.14107571428571428,0.28215142857142855,0.006616428571428579
11.750000000000032,0.14438392857142857,0.28876785714285713,0.006616428571428523
11.800000000000033,0.14769214285714283,0.29538428571428565,0.006616428571428579
11.850000000000033,0.15100035714285712,0.30200071428571423,0.006616428571428579
11.900000000000034,0.1543085714285714,0.3086171428571428,0.006616428571428523
11.950000000000035,0.15761678571428567,0.31523357142857134,0.006616428571428579
12.000000000000036,0.16092499999999996,0.3218499999999999,0.007064999999999988
12.050000000000036,0.16445749999999995,0.3289149999999999,0.0070650000000000435
12.100000000000037,0.16798999999999997,0.33597999999999995,0.007064999999999988
12.150000000000038,0.17152249999999997,0.34304499999999993,0.007064999999999988
12.200000000000038,0.17505499999999996,0.3501099999999999,0.0070650000000000435
12.250000000000039,0.17858749999999998,0.35717499999999996,0.007064999999999988
12.30000000000004,0.18211999999999998,0.36423999999999995,0.0070650000000000435
12.35000000000004,0.1856525,0.371305,0.007064999999999988
12.400000000000041,0.189185,0.37837,0.0070650000000000435
12.450000000000042,0.1927175,0.385435,0.007064999999999988
12.500000000000043,0.19625,0.3925,0.010653571428571429
12.550000000000043,0.1909232142857143,0.3818464285714286,0.010653571428571429
12.600000000000044,0.18559642857142858,0.37119285714285716,0.010653571428571429
12.650000000000045,0.18026964285714286,0.36053928571428573,0.010653571428571484
12.700000000000045,0.17494285714285712,0.34988571428571424,0.010653571428571373
12.750000000000046,0.16961607142857144,0.33923214285714287,0.010653571428571484
12.800000000000047,0.1642892857142857,0.3285785714285714,0.010653571428571429
12.850000000000048,0.15896249999999998,0.31792499999999996,0.010653571428571429
12.900000000000048,0.15363571428571426,0.30727142857142853,0.010653571428571429
12.950000000000049,0.14830892857142855,0.2966178571428571,0.010653571428571429
