Time[s],Dist[m],Velocity[m/s],1step_diff[m/s]
0.05,0.0016020408163265297,0.0032040816326530594,0.0032040816326530594
0.1,0.0032040816326530594,0.006408163265306119,0.0032040816326530594
0.15000000000000002,0.004806122448979589,0.009612244897959178,0.0032040816326530594
0.2,0.006408163265306119,0.012816326530612238,0.003204081632653063
0.25,0.00801020408163265,0.0160204081632653,0.0032040816326530594
0.3,0.00961224489795918,0.01922448979591836,0.0032040816326530594
0.35,0.01121428571428571,0.02242857142857142,0.003204081632653063
0.39999999999999997,0.012816326530612241,0.025632653061224482,0.0032040816326530594
0.44999999999999996,0.01441836734693877,0.02883673469387754,0.0032040816326530594
0.49999999999999994,0.0160204081632653,0.0320408163265306,0.0
0.5499999999999999,0.0160204081632653,0.0320408163265306,0.0
0.6,0.0160204081632653,0.0320408163265306,0.0
0.65,0.0160204081632653,0.0320408163265306,0.0
0.7000000000000001,0.0160204081632653,0.0320408163265306,0.0
0.7500000000000001,0.0160204081632653,0.0320408163265306,0.0
0.8000000000000002,0.0160204081632653,0.0320408163265306,0.0
0.8500000000000002,0.0160204081632653,0.0320408163265306,0.0
0.9000000000000002,0.0160204081632653,0.0320408163265306,0.0
0.9500000000000003,0.0160204081632653,0.0320408163265306,0.0
1.0000000000000002,0.0160204081632653,0.0320408163265306,0.0
1.0500000000000003,0.0160204081632653,0.0320408163265306,0.0
1.1000000000000003,0.0160204081632653,0.0320408163265306,0.0
1.1500000000000004,0.0160204081632653,0.0320408163265306,0.0
1.2000000000000004,0.0160204081632653,0.0320408163265306,0.0
1.2500000000000004,0.0160204081632653,0.0320408163265306,0.0
1.3000000000000005,0.0160204081632653,0.0320408163265306,0.0
1.3500000000000005,0.0160204081632653,0.0320408163265306,0.0
1.4000000000000006,0.0160204081632653,0.0320408163265306,0.0
1.4500000000000006,0.0160204081632653,0.0320408163265306,0.0
1.5000000000000007,0.0160204081632653,0.0320408163265306,0.0
1.5500000000000007,0.0160204081632653,0.0320408163265306,0.0
1.6000000000000008,0.0160204081632653,0.0320408163265306,0.0
1.6500000000000008,0.0160204081632653,0.0320408163265306,0.0
1.7000000000000008,0.0160204081632653,0.0320408163265306,0.0
1.7500000000000009,0.0160204081632653,0.0320408163265306,0.0
1.800000000000001,0.0160204081632653,0.0320408163265306,0.0
1.850000000000001,0.0160204081632653,0.0320408163265306,0.0
1.900000000000001,0.0160204081632653,0.0320408163265306,0.0
1.950000000000001,0.0160204081632653,0.0320408163265306,0.0
2.000000000000001,0.0160204081632653,0.0320408163265306,0.0006031212484993997
2.0500000000000007,0.016321968787515,0.03264393757503,0.0006031212484993997
2.1000000000000005,0.0166235294117647,0.0332470588235294,0.0006031212484993997
2.1500000000000004,0.0169250900360144,0.0338501800720288,0.0006031212484993997
2.2,0.0172266506602641,0.0344533013205282,0.0006031212484993997
2.25,0.0175282112845138,0.0350564225690276,0.0006031212484993997
2.3,0.0178297719087635,0.035659543817527,0.0006031212484993997
2.3499999999999996,0.0181313325330132,0.0362626650660264,0.0006031212484993997
2.3999999999999995,0.0184328931572629,0.0368657863145258,0.0006031212484993997
2.4499999999999993,0.0187344537815126,0.0374689075630252,0.0006031212484993997
2.499999999999999,0.0190360144057623,0.0380720288115246,0.005428091236494605
2.549999999999999,0.0217500600240096,0.0435001200480192,0.005428091236494598
2.5999999999999988,0.0244641056422569,0.0489282112845138,0.005428091236494598
2.6499999999999986,0.0271781512605042,0.0543563025210084,0.005428091236494598
2.6999999999999984,0.029892196878751498,0.059784393757502996,0.005428091236494598
2.7499999999999982,0.0326062424969988,0.0652124849939976,0.005428091236494598
2.799999999999998,0.035320288115246096,0.07064057623049219,0.005428091236494598
2.849999999999998,0.038034333733493395,0.07606866746698679,0.0054280912364946116
2.8999999999999977,0.0407483793517407,0.0814967587034814,0.005428091236494598
2.9499999999999975,0.043462424969988,0.086924849939976,0.005428091236494598
2.9999999999999973,0.0461764705882353,0.0923529411764706,0.005277310924369755
3.049999999999997,0.048815126050420175,0.09763025210084035,0.005277310924369741
3.099999999999997,0.051453781512605046,0.10290756302521009,0.005277310924369755
3.149999999999997,0.05409243697478992,0.10818487394957985,0.005277310924369755
3.1999999999999966,0.0567310924369748,0.1134621848739496,0.005277310924369755
3.2499999999999964,0.05936974789915968,0.11873949579831936,0.005277310924369741
3.2999999999999963,0.06200840336134455,0.1240168067226891,0.005277310924369741
3.349999999999996,0.06464705882352942,0.12929411764705884,0.005277310924369755
3.399999999999996,0.0672857142857143,0.1345714285714286,0.005277310924369755
3.4499999999999957,0.06992436974789917,0.13984873949579835,0.005277310924369755
3.4999999999999956,0.07256302521008405,0.1451260504201681,0.007915966386554646
3.5499999999999954,0.07652100840336137,0.15304201680672275,0.007915966386554618
3.599999999999995,0.08047899159663868,0.16095798319327737,0.007915966386554618
3.649999999999995,0.08443697478991599,0.16887394957983198,0.007915966386554618
3.699999999999995,0.0883949579831933,0.1767899159663866,0.007915966386554618
3.7499999999999947,0.09235294117647061,0.18470588235294122,0.007915966386554618
3.7999999999999945,0.09631092436974792,0.19262184873949584,0.007915966386554618
3.8499999999999943,0.10026890756302523,0.20053781512605046,0.007915966386554646
3.899999999999994,0.10422689075630255,0.2084537815126051,0.007915966386554618
3.949999999999994,0.10818487394957986,0.21636974789915972,0.007915966386554618
3.999999999999994,0.11214285714285717,0.22428571428571434,0.0022428571428571298
4.049999999999994,0.11326428571428573,0.22652857142857147,0.0022428571428571575
4.099999999999993,0.11438571428571431,0.22877142857142863,0.0022428571428571298
4.149999999999993,0.11550714285714288,0.23101428571428576,0.0022428571428571575
4.199999999999993,0.11662857142857146,0.2332571428571429,0.0022428571428571298
4.249999999999993,0.11775000000000002,0.23550000000000004,0.0022428571428571298
4.299999999999993,0.11887142857142859,0.23774285714285717,0.0022428571428571575
4.3499999999999925,0.11999285714285716,0.23998571428571433,0.0022428571428571298
4.399999999999992,0.12111428571428573,0.24222857142857146,0.0022428571428571575
4.449999999999992,0.12223571428571431,0.24447142857142862,0.0022428571428571298
4.499999999999992,0.12335714285714287,0.24671428571428575,0.0022428571428571298
4.549999999999992,0.12223571428571431,0.24447142857142862,0.0022428571428571575
4.599999999999992,0.12111428571428573,0.24222857142857146,0.0022428571428571298
4.6499999999999915,0.11999285714285716,0.23998571428571433,0.0022428571428571575
4.699999999999991,0.11887142857142859,0.23774285714285717,0.0022428571428571298
4.749999999999991,0.11775000000000002,0.23550000000000004,0.0022428571428571298
4.799999999999991,0.11662857142857146,0.2332571428571429,0.0022428571428571575
4.849999999999991,0.11550714285714288,0.23101428571428576,0.0022428571428571298
4.899999999999991,0.11438571428571431,0.22877142857142863,0.0022428571428571575
4.94999999999999,0.11326428571428573,0.22652857142857147,0.0022428571428571298
4.99999999999999,0.11214285714285717,0.22428571428571434,0.0022428571428571575
5.04999999999999,0.11102142857142859,0.22204285714285718,0.0022428571428571298
5.09999999999999,0.10990000000000003,0.21980000000000005,0.0022428571428571575
5.14999999999999,0.10877857142857145,0.2175571428571429,0.0022428571428571298
5.1999999999999895,0.10765714285714288,0.21531428571428576,0.0022428571428571575
5.249999999999989,0.1065357142857143,0.2130714285714286,0.0022428571428571575
5.299999999999989,0.10541428571428572,0.21082857142857145,0.0022428571428571298
5.349999999999989,0.10429285714285716,0.20858571428571432,0.0022428571428571575
5.399999999999989,0.10317142857142858,0.20634285714285716,0.0022428571428571298
5.449999999999989,0.10205000000000002,0.20410000000000003,0.0022428571428571575
5.4999999999999885,0.10092857142857144,0.20185714285714287,0.0022428571428571575
5.549999999999988,0.10205000000000002,0.20410000000000003,0.0022428571428571298
5.599999999999988,0.10317142857142858,0.20634285714285716,0.0022428571428571575
5.649999999999988,0.10429285714285716,0.20858571428571432,0.0022428571428571298
5.699999999999988,0.10541428571428572,0.21082857142857145,0.0022428571428571575
5.749999999999988,0.1065357142857143,0.2130714285714286,0.0022428571428571575
5.799999999999987,0.10765714285714288,0.21531428571428576,0.0022428571428571298
5.849999999999987,0.10877857142857145,0.2175571428571429,0.0022428571428571575
5.899999999999987,0.10990000000000003,0.21980000000000005,0.0022428571428571298
5.949999999999987,0.11102142857142859,0.22204285714285718,0.0022428571428571575
5.999999999999987,0.11214285714285717,0.22428571428571434,0.001246031746031745
6.0499999999999865,0.11276587301587304,0.22553174603174608,0.001246031746031745
6.099999999999986,0.11338888888888891,0.22677777777777783,0.001246031746031745
6.149999999999986,0.11401190476190479,0.22802380952380957,0.001246031746031745
6.199999999999986,0.11463492063492066,0.22926984126984132,0.001246031746031745
6.249999999999986,0.11525793650793653,0.23051587301587306,0.001246031746031745
6.299999999999986,0.1158809523809524,0.2317619047619048,0.001246031746031745
6.349999999999985,0.11650396825396828,0.23300793650793655,0.001246031746031745
6.399999999999985,0.11712698412698415,0.2342539682539683,0.001246031746031745
6.449999999999985,0.11775000000000002,0.23550000000000004,0.001246031746031745
6.499999999999985,0.1183730158730159,0.2367460317460318,0.0020434920634920806
6.549999999999985,0.11735126984126985,0.2347025396825397,0.0020434920634920806
6.5999999999999845,0.11632952380952381,0.23265904761904763,0.0020434920634920806
6.649999999999984,0.11530777777777777,0.23061555555555555,0.0020434920634920806
6.699999999999984,0.11428603174603173,0.22857206349206347,0.002043492063492053
6.749999999999984,0.1132642857142857,0.2265285714285714,0.0020434920634920806
6.799999999999984,0.11224253968253967,0.22448507936507933,0.0020434920634920806
6.849999999999984,0.11122079365079363,0.22244158730158725,0.0020434920634920806
6.8999999999999835,0.11019904761904759,0.22039809523809517,0.0020434920634920806
6.949999999999983,0.10917730158730155,0.2183546031746031,0.0020434920634920806
6.999999999999983,0.1081555555555555,0.216311111111111,0.008198888888888922
7.049999999999983,0.11225499999999997,0.22450999999999993,0.008198888888888867
7.099999999999983,0.1163544444444444,0.2327088888888888,0.008198888888888922
7.149999999999983,0.12045388888888886,0.24090777777777772,0.008198888888888894
7.199999999999982,0.12455333333333331,0.24910666666666662,0.008198888888888894
7.249999999999982,0.12865277777777775,0.2573055555555555,0.008198888888888922
7.299999999999982,0.13275222222222222,0.26550444444444443,0.008198888888888867
7.349999999999982,0.13685166666666665,0.2737033333333333,0.008198888888888922
7.399999999999982,0.1409511111111111,0.2819022222222222,0.008198888888888867
7.4499999999999815,0.14505055555555554,0.2901011111111111,0.008198888888888922
7.499999999999981,0.14915,0.2983,0.003139999999999976
7.549999999999981,0.15072,0.30144,0.0031400000000000317
7.599999999999981,0.15229,0.30458,0.003139999999999976
7.649999999999981,0.15386,0.30772,0.003139999999999976
7.699999999999981,0.15542999999999998,0.31085999999999997,0.003139999999999976
7.7499999999999805,0.15699999999999997,0.31399999999999995,0.0031400000000000317
7.79999999999998,0.15857,0.31714,0.003139999999999976
7.84999999999998,0.16013999999999998,0.32027999999999995,0.003139999999999976
7.89999999999998,0.16170999999999996,0.32341999999999993,0.0031400000000000317
7.94999999999998,0.16327999999999998,0.32655999999999996,0.003139999999999976
7.99999999999998,0.16484999999999997,0.32969999999999994,0.0007849999999999802
8.04999999999998,0.16524249999999996,0.3304849999999999,0.0007850000000000357
8.09999999999998,0.16563499999999998,0.33126999999999995,0.0007849999999999802
8.14999999999998,0.16602749999999997,0.33205499999999993,0.0007849999999999802
8.199999999999982,0.16641999999999996,0.3328399999999999,0.0007850000000000357
8.249999999999982,0.16681249999999997,0.33362499999999995,0.0007849999999999802
8.299999999999983,0.16720499999999996,0.33440999999999993,0.0007849999999999802
8.349999999999984,0.16759749999999995,0.3351949999999999,0.0007849999999999802
8.399999999999984,0.16798999999999994,0.3359799999999999,0.0007850000000000357
8.449999999999985,0.16838249999999996,0.3367649999999999,0.0007849999999999802
8.499999999999986,0.16877499999999995,0.3375499999999999,0.0015700000000000158
8.549999999999986,0.16798999999999994,0.3359799999999999,0.0015699999999999603
8.599999999999987,0.16720499999999996,0.33440999999999993,0.0015700000000000158
8.649999999999988,0.16641999999999996,0.3328399999999999,0.0015700000000000158
8.699999999999989,0.16563499999999995,0.3312699999999999,0.0015700000000000158
8.74999999999999,0.16484999999999994,0.3296999999999999,0.0015699999999999603
8.79999999999999,0.16406499999999996,0.3281299999999999,0.0015700000000000158
8.84999999999999,0.16327999999999995,0.3265599999999999,0.0015700000000000158
8.899999999999991,0.16249499999999995,0.3249899999999999,0.0015699999999999603
8.949999999999992,0.16170999999999996,0.32341999999999993,0.0015700000000000158
8.999999999999993,0.16092499999999996,0.3218499999999999,0.003925000000000012
9.049999999999994,0.15896249999999995,0.3179249999999999,0.003924999999999956
9.099999999999994,0.15699999999999997,0.31399999999999995,0.003925000000000012
9.149999999999995,0.15503749999999997,0.31007499999999993,0.003925000000000012
9.199999999999996,0.15307499999999996,0.3061499999999999,0.003924999999999956
9.249999999999996,0.15111249999999998,0.30222499999999997,0.003925000000000012
9.299999999999997,0.14914999999999998,0.29829999999999995,0.003925000000000012
9.349999999999998,0.14718749999999997,0.29437499999999994,0.003925000000000012
9.399999999999999,0.14522499999999997,0.29044999999999993,0.003924999999999956
9.45,0.1432625,0.286525,0.003925000000000012
9.5,0.14129999999999998,0.28259999999999996,0.0017942857142856927
9.55,0.14040285714285713,0.28080571428571427,0.0017942857142857482
9.600000000000001,0.13950571428571426,0.2790114285714285,0.0017942857142856927
9.650000000000002,0.13860857142857141,0.27721714285714283,0.0017942857142856927
9.700000000000003,0.13771142857142857,0.27542285714285714,0.0017942857142856927
9.750000000000004,0.13681428571428572,0.27362857142857144,0.0017942857142857482
9.800000000000004,0.13591714285714285,0.2718342857142857,0.0017942857142856927
9.850000000000005,0.13502,0.27004,0.0017942857142856927
9.900000000000006,0.13412285714285715,0.2682457142857143,0.0017942857142857482
9.950000000000006,0.13322571428571428,0.26645142857142856,0.0017942857142856927
10.000000000000007,0.13232857142857143,0.26465714285714287,0.00403714285714285
10.050000000000008,0.13031,0.26062,0.00403714285714285
10.100000000000009,0.12829142857142858,0.25658285714285717,0.00403714285714285
10.15000000000001,0.12627285714285716,0.2525457142857143,0.00403714285714285
10.20000000000001,0.12425428571428573,0.24850857142857147,0.00403714285714285
10.25000000000001,0.12223571428571431,0.24447142857142862,0.004037142857142878
10.300000000000011,0.12021714285714287,0.24043428571428574,0.00403714285714285
10.350000000000012,0.11819857142857144,0.2363971428571429,0.00403714285714285
10.400000000000013,0.11618000000000002,0.23236000000000004,0.00403714285714285
10.450000000000014,0.1141614285714286,0.2283228571428572,0.00403714285714285
10.500000000000014,0.11214285714285717,0.22428571428571434,0.00953214285714285
10.550000000000015,0.1169089285714286,0.2338178571428572,0.009532142857142822
10.600000000000016,0.121675,0.24335,0.009532142857142822
10.650000000000016,0.12644107142857142,0.25288214285714283,0.009532142857142878
10.700000000000017,0.13120714285714286,0.2624142857142857,0.009532142857142822
10.750000000000018,0.13597321428571427,0.27194642857142853,0.009532142857142878
10.800000000000018,0.1407392857142857,0.2814785714285714,0.009532142857142822
10.85000000000002,0.14550535714285712,0.29101071428571423,0.009532142857142822
10.90000000000002,0.15027142857142853,0.30054285714285706,0.009532142857142878
10.95000000000002,0.15503749999999997,0.31007499999999993,0.009532142857142822
11.000000000000021,0.15980357142857138,0.31960714285714276,0.0018690476190476035
11.050000000000022,0.15886904761904758,0.31773809523809515,0.0018690476190476035
11.100000000000023,0.15793452380952377,0.31586904761904755,0.001869047619047659
11.150000000000023,0.15699999999999995,0.3139999999999999,0.0018690476190476035
11.200000000000024,0.15606547619047614,0.3121309523809523,0.0018690476190476035
11.250000000000025,0.15513095238095234,0.3102619047619047,0.0018690476190476035
11.300000000000026,0.15419642857142854,0.3083928571428571,0.0018690476190476035
11.350000000000026,0.15326190476190474,0.3065238095238095,0.001869047619047659
11.400000000000027,0.1523273809523809,0.3046547619047618,0.0018690476190476035
11.450000000000028,0.1513928571428571,0.3027857142857142,0.0018690476190476035
11.500000000000028,0.1504583333333333,0.3009166666666666,0.006915476190476166
11.55000000000003,0.14700059523809522,0.29400119047619044,0.006915476190476166
11.60000000000003,0.14354285714285714,0.2870857142857143,0.006915476190476222
11.65000000000003,0.14008511904761903,0.28017023809523806,0.006915476190476166
11.700000000000031,0.13662738095238094,0.2732547619047619,0.006915476190476166
11.750000000000032,0.13316964285714286,0.2663392857142857,0.006915476190476222
11.800000000000033,0.12971190476190475,0.2594238095238095,0.006915476190476166
11.850000000000033,0.12625416666666667,0.25250833333333333,0.006915476190476166
11.900000000000034,0.12279642857142858,0.24559285714285717,0.006915476190476166
11.950000000000035,0.1193386904761905,0.238677380952381,0.006915476190476194
12.000000000000036,0.1158809523809524,0.2317619047619048,0.0018690476190476313
12.050000000000036,0.11494642857142859,0.22989285714285718,0.0018690476190476035
12.100000000000037,0.11401190476190479,0.22802380952380957,0.0018690476190476313
12.150000000000038,0.11307738095238097,0.22615476190476194,0.0018690476190476035
12.200000000000038,0.11214285714285717,0.22428571428571434,0.0018690476190476313
12.250000000000039,0.11120833333333335,0.2224166666666667,0.0018690476190476313
12.30000000000004,0.11027380952380954,0.22054761904761908,0.0018690476190476035
12.35000000000004,0.10933928571428574,0.21867857142857147,0.0018690476190476313
12.400000000000041,0.10840476190476192,0.21680952380952384,0.0018690476190476035
12.450000000000042,0.10747023809523812,0.21494047619047624,0.0018690476190476313
12.500000000000043,0.1065357142857143,0.2130714285714286,0.006167857142857142
12.550000000000043,0.10961964285714287,0.21923928571428575,0.006167857142857142
12.600000000000044,0.11270357142857144,0.2254071428571429,0.006167857142857142
12.650000000000045,0.11578750000000002,0.23157500000000003,0.006167857142857114
12.700000000000045,0.11887142857142857,0.23774285714285714,0.006167857142857169
12.750000000000046,0.12195535714285716,0.24391071428571431,0.006167857142857114
12.800000000000047,0.12503928571428571,0.25007857142857143,0.006167857142857169
12.850000000000048,0.1281232142857143,0.2562464285714286,0.006167857142857114
12.900000000000048,0.13120714285714286,0.2624142857142857,0.006167857142857169
12.950000000000049,0.13429107142857144,0.2685821428571429,0.006167857142857114
13.00000000000005,0.137375,0.27475,0.006280000000000008
13.05000000000005,0.140515,0.28103,0.006280000000000008
