Time[s],Dist[m],Velocity[m/s],1step_diff[m/s]
0.05,0.0015699999999999985,0.0015699999999999985,0.001570000000000002
0.1,0.0031400000000000004,0.0031400000000000004,0.0015699999999999985
0.15000000000000002,0.004709999999999999,0.004709999999999999,0.0015699999999999985
0.2,0.006279999999999997,0.006279999999999997,0.0015699999999999985
0.25,0.007849999999999996,0.007849999999999996,0.0015699999999999985
0.3,0.009419999999999994,0.009419999999999994,0.001570000000000002
0.35,0.010989999999999996,0.010989999999999996,0.0015699999999999985
0.39999999999999997,0.012559999999999995,0.012559999999999995,0.0015699999999999985
0.44999999999999996,0.014129999999999993,0.014129999999999993,0.0015699999999999985
0.49999999999999994,0.015699999999999992,0.015699999999999992,0.001570000000000002
0.5499999999999999,0.017269999999999994,0.017269999999999994,0.001569999999999995
0.6,0.01883999999999999,0.01883999999999999,0.001570000000000002
0.65,0.02040999999999999,0.02040999999999999,0.0015699999999999985
0.7000000000000001,0.02197999999999999,0.02197999999999999,0.0015699999999999985
0.7500000000000001,0.023549999999999988,0.023549999999999988,0.0015699999999999985
0.8000000000000002,0.025119999999999986,0.025119999999999986,0.0015699999999999985
0.8500000000000002,0.026689999999999985,0.026689999999999985,0.001570000000000002
0.9000000000000002,0.028259999999999987,0.028259999999999987,0.0015699999999999985
0.9500000000000003,0.029829999999999985,0.029829999999999985,0.0015699999999999985
1.0000000000000002,0.031399999999999983,0.031399999999999983,0.0
1.0500000000000003,0.031399999999999983,0.031399999999999983,0.0
1.1000000000000003,0.031399999999999983,0.031399999999999983,0.0
1.1500000000000004,0.031399999999999983,0.031399999999999983,0.0
1.2000000000000004,0.031399999999999983,0.031399999999999983,0.0
1.2500000000000004,0.031399999999999983,0.031399999999999983,0.0
1.3000000000000005,0.031399999999999983,0.031399999999999983,0.0
1.3500000000000005,0.031399999999999983,0.031399999999999983,0.0
1.4000000000000006,0.031399999999999983,0.031399999999999983,0.0
1.4500000000000006,0.031399999999999983,0.031399999999999983,0.0
1.5000000000000007,0.031399999999999983,0.031399999999999983,0.0
1.5500000000000007,0.031399999999999983,0.031399999999999983,0.0
1.6000000000000008,0.031399999999999983,0.031399999999999983,0.0
1.6500000000000008,0.031399999999999983,0.031399999999999983,0.0
1.7000000000000008,0.031399999999999983,0.031399999999999983,0.0
1.7500000000000009,0.031399999999999983,0.031399999999999983,0.0
1.800000000000001,0.031399999999999983,0.031399999999999983,0.0
1.850000000000001,0.031399999999999983,0.031399999999999983,0.0
1.900000000000001,0.031399999999999983,0.031399999999999983,0.0
1.950000000000001,0.031399999999999983,0.031399999999999983,0.0
2.000000000000001,0.031399999999999983,0.031399999999999983,0.001523823529411765
2.0500000000000007,0.03292382352941175,0.03292382352941175,0.001523823529411765
2.1000000000000005,0.03444764705882351,0.03444764705882351,0.001523823529411772
2.1500000000000004,0.035971470588235285,0.035971470588235285,0.001523823529411765
2.2,0.03749529411764705,0.03749529411764705,0.001523823529411765
2.25,0.039019117647058815,0.039019117647058815,0.001523823529411772
2.3,0.04054294117647059,0.04054294117647059,0.001523823529411765
2.3499999999999996,0.04206676470588235,0.04206676470588235,0.001523823529411765
2.3999999999999995,0.04359058823529412,0.04359058823529412,0.001523823529411765
2.4499999999999993,0.04511441176470588,0.04511441176470588,0.001523823529411765
2.499999999999999,0.04663823529411765,0.04663823529411765,0.001523823529411772
2.549999999999999,0.04816205882352942,0.04816205882352942,0.001523823529411765
2.5999999999999988,0.049685882352941184,0.049685882352941184,0.001523823529411765
2.6499999999999986,0.05120970588235295,0.05120970588235295,0.001523823529411772
2.6999999999999984,0.05273352941176472,0.05273352941176472,0.001523823529411765
2.7499999999999982,0.054257352941176486,0.054257352941176486,0.001523823529411765
2.799999999999998,0.05578117647058825,0.05578117647058825,0.001523823529411765
2.849999999999998,0.057305000000000016,0.057305000000000016,0.001523823529411765
2.8999999999999977,0.05882882352941178,0.05882882352941178,0.001523823529411772
2.9499999999999975,0.06035264705882355,0.06035264705882355,0.001523823529411765
2.9999999999999973,0.06187647058823532,0.06187647058823532,0.000740831202046037
3.049999999999997,0.06261730179028135,0.06261730179028135,0.00074083120204603
3.099999999999997,0.06335813299232738,0.06335813299232738,0.0007408312020460439
3.149999999999997,0.06409896419437343,0.06409896419437343,0.00074083120204603
3.1999999999999966,0.06483979539641946,0.06483979539641946,0.00074083120204603
3.2499999999999964,0.06558062659846549,0.06558062659846549,0.0007408312020460439
3.2999999999999963,0.06632145780051153,0.06632145780051153,0.00074083120204603
3.349999999999996,0.06706228900255756,0.06706228900255756,0.0007408312020460439
3.399999999999996,0.0678031202046036,0.0678031202046036,0.00074083120204603
3.4499999999999957,0.06854395140664964,0.06854395140664964,0.00074083120204603
3.4999999999999956,0.06928478260869567,0.06928478260869567,0.0007408312020460439
3.5499999999999954,0.07002561381074171,0.07002561381074171,0.00074083120204603
3.599999999999995,0.07076644501278774,0.07076644501278774,0.00074083120204603
3.649999999999995,0.07150727621483377,0.07150727621483377,0.0007408312020460439
3.699999999999995,0.07224810741687981,0.07224810741687981,0.00074083120204603
3.7499999999999947,0.07298893861892584,0.07298893861892584,0.00074083120204603
3.7999999999999945,0.07372976982097187,0.07372976982097187,0.0007408312020460439
3.8499999999999943,0.07447060102301792,0.07447060102301792,0.00074083120204603
3.899999999999994,0.07521143222506395,0.07521143222506395,0.0007408312020460439
3.949999999999994,0.07595226342710999,0.07595226342710999,0.00074083120204603
3.999999999999994,0.07669309462915602,0.07669309462915602,0.0014400488258544536
4.049999999999994,0.07813314345501048,0.07813314345501048,0.0014400488258544536
4.099999999999993,0.07957319228086493,0.07957319228086493,0.0014400488258544397
4.149999999999993,0.08101324110671937,0.08101324110671937,0.0014400488258544536
4.199999999999993,0.08245328993257382,0.08245328993257382,0.0014400488258544536
4.249999999999993,0.08389333875842828,0.08389333875842828,0.0014400488258544397
4.299999999999993,0.08533338758428272,0.08533338758428272,0.0014400488258544536
4.3499999999999925,0.08677343641013717,0.08677343641013717,0.0014400488258544536
4.399999999999992,0.08821348523599162,0.08821348523599162,0.0014400488258544536
4.449999999999992,0.08965353406184608,0.08965353406184608,0.0014400488258544536
4.499999999999992,0.09109358288770053,0.09109358288770053,0.0014400488258544397
4.549999999999992,0.09253363171355497,0.09253363171355497,0.0014400488258544536
4.599999999999992,0.09397368053940942,0.09397368053940942,0.0014400488258544536
4.6499999999999915,0.09541372936526388,0.09541372936526388,0.0014400488258544397
4.699999999999991,0.09685377819111832,0.09685377819111832,0.0014400488258544536
4.749999999999991,0.09829382701697277,0.09829382701697277,0.0014400488258544536
4.799999999999991,0.09973387584282722,0.09973387584282722,0.0014400488258544536
4.849999999999991,0.10117392466868168,0.10117392466868168,0.0014400488258544536
4.899999999999991,0.10261397349453613,0.10261397349453613,0.0014400488258544397
4.94999999999999,0.10405402232039057,0.10405402232039057,0.0014400488258544536
4.99999999999999,0.10549407114624502,0.10549407114624502,0.008165447957839259
5.04999999999999,0.11365951910408428,0.11365951910408428,0.008165447957839272
5.09999999999999,0.12182496706192356,0.12182496706192356,0.008165447957839245
5.14999999999999,0.1299904150197628,0.1299904150197628,0.008165447957839272
5.1999999999999895,0.13815586297760207,0.13815586297760207,0.008165447957839245
5.249999999999989,0.14632131093544132,0.14632131093544132,0.008165447957839272
5.299999999999989,0.1544867588932806,0.1544867588932806,0.008165447957839272
5.349999999999989,0.16265220685111986,0.16265220685111986,0.008165447957839245
5.399999999999989,0.1708176548089591,0.1708176548089591,0.008165447957839272
5.449999999999989,0.17898310276679838,0.17898310276679838,0.008165447957839272
5.4999999999999885,0.18714855072463765,0.18714855072463765,0.008165447957839245
5.549999999999988,0.1953139986824769,0.1953139986824769,0.008165447957839272
5.599999999999988,0.20347944664031617,0.20347944664031617,0.008165447957839272
5.649999999999988,0.21164489459815544,0.21164489459815544,0.008165447957839245
5.699999999999988,0.2198103425559947,0.2198103425559947,0.008165447957839272
5.749999999999988,0.22797579051383396,0.22797579051383396,0.008165447957839272
5.799999999999987,0.23614123847167323,0.23614123847167323,0.008165447957839245
5.849999999999987,0.24430668642951248,0.24430668642951248,0.008165447957839245
5.899999999999987,0.2524721343873517,0.2524721343873517,0.0081654479578393
5.949999999999987,0.260637582345191,0.260637582345191,0.008165447957839245
5.999999999999987,0.26880303030303027,0.26880303030303027,0.002914015151515126
6.0499999999999865,0.2717170454545454,0.2717170454545454,0.0029140151515151813
6.099999999999986,0.2746310606060606,0.2746310606060606,0.002914015151515126
6.149999999999986,0.2775450757575757,0.2775450757575757,0.0029140151515151813
6.199999999999986,0.2804590909090909,0.2804590909090909,0.002914015151515126
6.249999999999986,0.283373106060606,0.283373106060606,0.0029140151515151813
6.299999999999986,0.2862871212121212,0.2862871212121212,0.002914015151515126
6.349999999999985,0.2892011363636363,0.2892011363636363,0.002914015151515126
6.399999999999985,0.29211515151515144,0.29211515151515144,0.0029140151515151813
6.449999999999985,0.2950291666666666,0.2950291666666666,0.0029140151515151813
6.499999999999985,0.2979431818181818,0.2979431818181818,0.002914015151515126
6.549999999999985,0.3008571969696969,0.3008571969696969,0.002914015151515126
6.5999999999999845,0.30377121212121205,0.30377121212121205,0.0029140151515151813
6.649999999999984,0.30668522727272723,0.30668522727272723,0.002914015151515126
6.699999999999984,0.30959924242424236,0.30959924242424236,0.0029140151515151813
6.749999999999984,0.31251325757575754,0.31251325757575754,0.002914015151515126
6.799999999999984,0.31542727272727267,0.31542727272727267,0.0029140151515151813
6.849999999999984,0.31834128787878785,0.31834128787878785,0.002914015151515126
6.8999999999999835,0.321255303030303,0.321255303030303,0.0029140151515151813
6.949999999999983,0.32416931818181816,0.32416931818181816,0.002914015151515126
6.999999999999983,0.3270833333333333,0.3270833333333333,0.0005233333333333201
7.049999999999983,0.3276066666666666,0.3276066666666666,0.0005233333333333201
7.099999999999983,0.3281299999999999,0.3281299999999999,0.0005233333333333756
7.149999999999983,0.3286533333333333,0.3286533333333333,0.0005233333333333201
7.199999999999982,0.3291766666666666,0.3291766666666666,0.0005233333333333201
7.249999999999982,0.32969999999999994,0.32969999999999994,0.0005233333333333756
7.299999999999982,0.3302233333333333,0.3302233333333333,0.0005233333333333201
7.349999999999982,0.33074666666666663,0.33074666666666663,0.0005233333333333201
7.399999999999982,0.33126999999999995,0.33126999999999995,0.0005233333333333201
7.4499999999999815,0.3317933333333333,0.3317933333333333,0.0005233333333333201
7.499999999999981,0.3323166666666666,0.3323166666666666,0.0005233333333333756
7.549999999999981,0.33283999999999997,0.33283999999999997,0.0005233333333333201
7.599999999999981,0.3333633333333333,0.3333633333333333,0.0005233333333333201
7.649999999999981,0.3338866666666666,0.3338866666666666,0.0005233333333333756
7.699999999999981,0.33441,0.33441,0.0005233333333333201
7.7499999999999805,0.3349333333333333,0.3349333333333333,0.0005233333333333201
7.79999999999998,0.3354566666666666,0.3354566666666666,0.0005233333333333201
7.84999999999998,0.33597999999999995,0.33597999999999995,0.0005233333333333201
7.89999999999998,0.33650333333333327,0.33650333333333327,0.0005233333333333756
7.94999999999998,0.33702666666666664,0.33702666666666664,0.0005233333333333201
7.99999999999998,0.33754999999999996,0.33754999999999996,0.0005887500000000268
8.04999999999998,0.33813875,0.33813875,0.0005887499999999712
8.09999999999998,0.33872749999999996,0.33872749999999996,0.0005887500000000268
8.14999999999998,0.33931625,0.33931625,0.0005887499999999712
8.199999999999982,0.33990499999999996,0.33990499999999996,0.0005887500000000268
8.249999999999982,0.34049375,0.34049375,0.0005887499999999712
8.299999999999983,0.34108249999999996,0.34108249999999996,0.0005887500000000268
8.349999999999984,0.34167125,0.34167125,0.0005887499999999712
8.399999999999984,0.34225999999999995,0.34225999999999995,0.0005887500000000268
8.449999999999985,0.34284875,0.34284875,0.0005887499999999712
8.499999999999986,0.34343749999999995,0.34343749999999995,0.0005887500000000268
8.549999999999986,0.34402625,0.34402625,0.0005887500000000268
8.599999999999987,0.344615,0.344615,0.0005887499999999712
8.649999999999988,0.34520375,0.34520375,0.0005887500000000268
8.699999999999989,0.3457925,0.3457925,0.0005887499999999712
8.74999999999999,0.34638125,0.34638125,0.0005887500000000268
8.79999999999999,0.34697,0.34697,0.0005887499999999712
8.84999999999999,0.34755874999999997,0.34755874999999997,0.0005887500000000268
8.899999999999991,0.3481475,0.3481475,0.0005887499999999712
8.949999999999992,0.34873624999999997,0.34873624999999997,0.0005887500000000268
8.999999999999993,0.349325,0.349325,0.002158749999999987
9.049999999999994,0.35148375,0.35148375,0.002158749999999987
9.099999999999994,0.35364249999999997,0.35364249999999997,0.0021587500000000426
9.149999999999995,0.35580125,0.35580125,0.002158749999999987
9.199999999999996,0.35796,0.35796,0.002158749999999987
9.249999999999996,0.36011875,0.36011875,0.0021587500000000426
9.299999999999997,0.36227750000000003,0.36227750000000003,0.002158749999999987
9.349999999999998,0.36443625,0.36443625,0.002158749999999987
9.399999999999999,0.366595,0.366595,0.002158749999999987
9.45,0.36875375,0.36875375,0.002158749999999987
9.5,0.3709125,0.3709125,0.0021587500000000426
9.55,0.37307125,0.37307125,0.002158749999999987
9.600000000000001,0.37523,0.37523,0.002158749999999987
9.650000000000002,0.37738875,0.37738875,0.0021587500000000426
9.700000000000003,0.37954750000000004,0.37954750000000004,0.002158749999999987
9.750000000000004,0.38170625,0.38170625,0.002158749999999987
9.800000000000004,0.383865,0.383865,0.002158749999999987
9.850000000000005,0.38602375,0.38602375,0.002158749999999987
9.900000000000006,0.3881825,0.3881825,0.0021587500000000426
9.950000000000006,0.39034125000000003,0.39034125000000003,0.002158749999999987
10.000000000000007,0.3925,0.3925,0.000981249999999989
10.050000000000008,0.39348125,0.39348125,0.000981249999999989
10.100000000000009,0.3944625,0.3944625,0.0009812500000000446
10.15000000000001,0.39544375000000004,0.39544375000000004,0.000981249999999989
10.20000000000001,0.396425,0.396425,0.000981249999999989
10.25000000000001,0.39740625,0.39740625,0.000981249999999989
10.300000000000011,0.3983875,0.3983875,0.000981249999999989
10.350000000000012,0.39936875,0.39936875,0.0009812500000000446
10.400000000000013,0.40035000000000004,0.40035000000000004,0.000981249999999989
10.450000000000014,0.40133125000000003,0.40133125000000003,0.000981249999999989
10.500000000000014,0.4023125,0.4023125,0.000981249999999989
10.550000000000015,0.40329375,0.40329375,0.000981249999999989
10.600000000000016,0.404275,0.404275,0.0009812500000000446
10.650000000000016,0.40525625000000004,0.40525625000000004,0.000981249999999989
10.700000000000017,0.40623750000000003,0.40623750000000003,0.000981249999999989
10.750000000000018,0.40721875,0.40721875,0.000981249999999989
10.800000000000018,0.4082,0.4082,0.000981249999999989
10.85000000000002,0.40918125,0.40918125,0.0009812500000000446
10.90000000000002,0.41016250000000004,0.41016250000000004,0.000981249999999989
10.95000000000002,0.41114375000000003,0.41114375000000003,0.000981249999999989
11.000000000000021,0.412125,0.412125,0.0068687500000000346
11.050000000000022,0.40525625,0.40525625,0.006868749999999979
11.100000000000023,0.3983875,0.3983875,0.006868749999999979
11.150000000000023,0.39151875,0.39151875,0.0068687500000000346
11.200000000000024,0.38465,0.38465,0.006868749999999979
11.250000000000025,0.37778125,0.37778125,0.0068687500000000346
11.300000000000026,0.3709125,0.3709125,0.006868749999999979
11.350000000000026,0.36404375,0.36404375,0.006868749999999979
11.400000000000027,0.357175,0.357175,0.0068687500000000346
11.450000000000028,0.35030625,0.35030625,0.0068687500000000346
11.500000000000028,0.34343749999999995,0.34343749999999995,0.006868749999999979
11.55000000000003,0.33656874999999997,0.33656874999999997,0.006868749999999979
11.60000000000003,0.3297,0.3297,0.0068687500000000346
11.65000000000003,0.32283124999999996,0.32283124999999996,0.006868749999999979
11.700000000000031,0.3159625,0.3159625,0.0068687500000000346
11.750000000000032,0.30909374999999994,0.30909374999999994,0.006868749999999979
11.800000000000033,0.30222499999999997,0.30222499999999997,0.0068687500000000346
11.850000000000033,0.29535624999999993,0.29535624999999993,0.006868749999999979
11.900000000000034,0.28848749999999995,0.28848749999999995,0.0068687500000000346
11.950000000000035,0.2816187499999999,0.2816187499999999,0.006868749999999979
12.000000000000036,0.27474999999999994,0.27474999999999994,0.0029437500000000227
12.050000000000036,0.27769374999999996,0.27769374999999996,0.0029437499999999672
12.100000000000037,0.28063749999999993,0.28063749999999993,0.0029437500000000227
12.150000000000038,0.28358124999999995,0.28358124999999995,0.0029437499999999672
12.200000000000038,0.2865249999999999,0.2865249999999999,0.0029437500000000227
12.250000000000039,0.28946874999999994,0.28946874999999994,0.0029437500000000227
12.30000000000004,0.29241249999999996,0.29241249999999996,0.0029437499999999672
12.35000000000004,0.29535624999999993,0.29535624999999993,0.0029437500000000227
12.400000000000041,0.29829999999999995,0.29829999999999995,0.0029437499999999672
12.450000000000042,0.3012437499999999,0.3012437499999999,0.0029437500000000227
12.500000000000043,0.30418749999999994,0.30418749999999994,0.0029437500000000227
12.550000000000043,0.30713124999999997,0.30713124999999997,0.0029437499999999672
12.600000000000044,0.31007499999999993,0.31007499999999993,0.0029437500000000227
12.650000000000045,0.31301874999999996,0.31301874999999996,0.0029437499999999672
12.700000000000045,0.3159624999999999,0.3159624999999999,0.0029437500000000227
12.750000000000046,0.31890624999999995,0.31890624999999995,0.0029437500000000227
12.800000000000047,0.32184999999999997,0.32184999999999997,0.0029437499999999672
12.850000000000048,0.32479374999999994,0.32479374999999994,0.0029437500000000227
12.900000000000048,0.32773749999999996,0.32773749999999996,0.0029437499999999672
12.950000000000049,0.3306812499999999,0.3306812499999999,0.0029437500000000227
13.00000000000005,0.33362499999999995,0.33362499999999995,0.001962499999999978
13.05000000000005,0.3355874999999999,0.3355874999999999,0.0019625000000000337
13.100000000000051,0.33754999999999996,0.33754999999999996,0.001962499999999978
13.150000000000052,0.33951249999999994,0.33951249999999994,0.0019625000000000337
13.200000000000053,0.341475,0.341475,0.001962499999999978
13.250000000000053,0.34343749999999995,0.34343749999999995,0.0019625000000000337
13.300000000000054,0.3454,0.3454,0.001962499999999978
13.350000000000055,0.34736249999999996,0.34736249999999996,0.0019625000000000337
